[Name]
Series 1 for Case v9_m5_350 at /LINE:Line horizontal 18

[Data]
X [ m ],Velocity [ m s^-1 ]
-8.99999985e-04, 1.95401087e-02
-8.99699691e-04, 1.95410196e-02
-8.99399398e-04, 1.95419304e-02
-8.99099105e-04, 1.95428450e-02
-8.98798811e-04, 1.95437539e-02
-8.98498518e-04, 1.95446666e-02
-8.98198225e-04, 1.95455793e-02
-8.97897931e-04, 1.95464920e-02
-8.97597638e-04, 1.95474029e-02
-8.97297345e-04, 1.95487943e-02
-8.96997051e-04, 1.95492618e-02
-8.96696758e-04, 1.95502993e-02
-8.96396465e-04, 1.95513405e-02
-8.96096171e-04, 1.95523780e-02
-8.95795878e-04, 1.95534173e-02
-8.95495585e-04, 1.95544567e-02
-8.95195291e-04, 1.95554961e-02
-8.94894998e-04, 1.95565335e-02
-8.94594705e-04, 1.95575729e-02
-8.94294411e-04, 1.95586141e-02
-8.93994118e-04, 1.95596535e-02
-8.93693825e-04, 1.95606910e-02
-8.93393531e-04, 1.95617303e-02
-8.93093238e-04, 1.95627697e-02
-8.92792945e-04, 1.95638072e-02
-8.92492651e-04, 1.95648447e-02
-8.92192358e-04, 1.95658859e-02
-8.91892065e-04, 1.95669252e-02
-8.91591772e-04, 1.95679665e-02
-8.91291478e-04, 1.95690040e-02
-8.90991185e-04, 1.95700433e-02
-8.90690892e-04, 1.95710827e-02
-8.90390598e-04, 1.95721220e-02
-8.90090305e-04, 1.95731614e-02
-8.89790012e-04, 1.95742007e-02
-8.89489718e-04, 1.95752401e-02
-8.89189425e-04, 1.95762794e-02
-8.88889132e-04, 1.95773169e-02
-8.88588838e-04, 1.95783563e-02
-8.88288545e-04, 1.95793957e-02
-8.87988252e-04, 1.95804350e-02
-8.87687958e-04, 1.95814762e-02
-8.87387665e-04, 1.95825156e-02
-8.87087372e-04, 1.95835549e-02
-8.86787078e-04, 1.95845924e-02
-8.86486785e-04, 1.95856337e-02
-8.86186492e-04, 1.95866711e-02
-8.85886198e-04, 1.95877124e-02
-8.85585905e-04, 1.95887499e-02
-8.85285612e-04, 1.95897892e-02
-8.84985318e-04, 1.95908286e-02
-8.84685025e-04, 1.95918679e-02
-8.84384732e-04, 1.95929091e-02
-8.84084438e-04, 1.95939485e-02
-8.83784145e-04, 1.95949860e-02
-8.83483852e-04, 1.95960291e-02
-8.83183558e-04, 1.95970647e-02
-8.82883265e-04, 1.95981059e-02
-8.82582972e-04, 1.95991434e-02
-8.82282679e-04, 1.96001846e-02
-8.81982385e-04, 1.96012240e-02
-8.81682092e-04, 1.96022633e-02
-8.81381799e-04, 1.96033027e-02
-8.81081505e-04, 1.96043439e-02
-8.80781212e-04, 1.96053814e-02
-8.80480919e-04, 1.96064245e-02
-8.80180625e-04, 1.96074620e-02
-8.79880332e-04, 1.96085013e-02
-8.79580039e-04, 1.96095407e-02
-8.79279745e-04, 1.96105801e-02
-8.78979452e-04, 1.96116194e-02
-8.78679159e-04, 1.96126606e-02
-8.78378865e-04, 1.96137000e-02
-8.78078572e-04, 1.96147412e-02
-8.77778279e-04, 1.96157806e-02
-8.77477985e-04, 1.96168218e-02
-8.77177692e-04, 1.96178593e-02
-8.76877399e-04, 1.96188968e-02
-8.76577105e-04, 1.96199380e-02
-8.76276812e-04, 1.96209773e-02
-8.75976519e-04, 1.96220186e-02
-8.75676225e-04, 1.96230579e-02
-8.75375932e-04, 1.96240973e-02
-8.75075639e-04, 1.96251366e-02
-8.74775345e-04, 1.96261797e-02
-8.74475052e-04, 1.96272172e-02
-8.74174759e-04, 1.96282584e-02
-8.73874465e-04, 1.96292959e-02
-8.73574172e-04, 1.96303371e-02
-8.73273879e-04, 1.96313765e-02
-8.72973586e-04, 1.96324158e-02
-8.72673292e-04, 1.96334552e-02
-8.72372999e-04, 1.96344983e-02
-8.72072706e-04, 1.96355376e-02
-8.71772412e-04, 1.96365770e-02
-8.71472119e-04, 1.96376164e-02
-8.71171826e-04, 1.96386557e-02
-8.70871532e-04, 1.96396951e-02
-8.70571239e-04, 1.96407381e-02
-8.70270946e-04, 1.96417775e-02
-8.69970652e-04, 1.96428187e-02
-8.69670359e-04, 1.96438581e-02
-8.69370066e-04, 1.96448974e-02
-8.69069772e-04, 1.96459386e-02
-8.68769479e-04, 1.96469799e-02
-8.68469186e-04, 1.96480174e-02
-8.68168892e-04, 1.96490586e-02
-8.67868599e-04, 1.96500979e-02
-8.67568306e-04, 1.96511392e-02
-8.67268012e-04, 1.96521785e-02
-8.66967719e-04, 1.96532197e-02
-8.66667426e-04, 1.96542591e-02
-8.66367132e-04, 1.96553003e-02
-8.66066839e-04, 1.96563397e-02
-8.65766546e-04, 1.96573809e-02
-8.65466252e-04, 1.96584221e-02
-8.65165959e-04, 1.96594596e-02
-8.64865666e-04, 1.96604989e-02
-8.64565372e-04, 1.96615439e-02
-8.64265079e-04, 1.96625851e-02
-8.63964786e-04, 1.96636226e-02
-8.63664492e-04, 1.96646638e-02
-8.63364199e-04, 1.96657032e-02
-8.63063906e-04, 1.96667425e-02
-8.62763613e-04, 1.96677838e-02
-8.62463319e-04, 1.96688250e-02
-8.62163026e-04, 1.96698662e-02
-8.61862733e-04, 1.96709055e-02
-8.61562439e-04, 1.96719449e-02
-8.61262146e-04, 1.96729861e-02
-8.60961853e-04, 1.96740236e-02
-8.60661559e-04, 1.96750667e-02
-8.60361266e-04, 1.96761061e-02
-8.60060973e-04, 1.96771473e-02
-8.59760679e-04, 1.96781866e-02
-8.59460386e-04, 1.96790192e-02
-8.59160093e-04, 1.96797401e-02
-8.58859799e-04, 1.96804572e-02
-8.58559506e-04, 1.96811799e-02
-8.58259213e-04, 1.96818989e-02
-8.57958919e-04, 1.96826179e-02
-8.57658626e-04, 1.96833368e-02
-8.57358333e-04, 1.96840558e-02
-8.57058039e-04, 1.96847748e-02
-8.56757746e-04, 1.96854956e-02
-8.56457453e-04, 1.96862146e-02
-8.56157159e-04, 1.96869336e-02
-8.55856866e-04, 1.96876545e-02
-8.55556573e-04, 1.96883716e-02
-8.55256279e-04, 1.96890924e-02
-8.54955986e-04, 1.96898114e-02
-8.54655693e-04, 1.96905304e-02
-8.54355399e-04, 1.96912494e-02
-8.54055106e-04, 1.96919721e-02
-8.53754813e-04, 1.96926892e-02
-8.53454520e-04, 1.96934100e-02
-8.53154226e-04, 1.96941290e-02
-8.52853933e-04, 1.96948480e-02
-8.52553640e-04, 1.96955707e-02
-8.52253346e-04, 1.96962878e-02
-8.51953053e-04, 1.96970068e-02
-8.51652760e-04, 1.96977258e-02
-8.51352466e-04, 1.96984466e-02
-8.51052173e-04, 1.96991637e-02
-8.50751880e-04, 1.96998864e-02
-8.50451586e-04, 1.97006036e-02
-8.50151293e-04, 1.97013263e-02
-8.49851000e-04, 1.97020452e-02
-8.49550706e-04, 1.97027642e-02
-8.49250413e-04, 1.97034851e-02
-8.48950120e-04, 1.97042059e-02
-8.48649826e-04, 1.97049249e-02
-8.48349533e-04, 1.97056420e-02
-8.48049240e-04, 1.97063629e-02
-8.47748946e-04, 1.97070837e-02
-8.47448653e-04, 1.97078027e-02
-8.47148360e-04, 1.97085235e-02
-8.46848066e-04, 1.97092444e-02
-8.46547773e-04, 1.97099634e-02
-8.46247480e-04, 1.97106842e-02
-8.45947186e-04, 1.97114050e-02
-8.45646893e-04, 1.97121203e-02
-8.45346600e-04, 1.97128449e-02
-8.45046306e-04, 1.97135620e-02
-8.44746013e-04, 1.97142828e-02
-8.44445720e-04, 1.97150037e-02
-8.44145427e-04, 1.97157227e-02
-8.43845133e-04, 1.97164454e-02
-8.43544840e-04, 1.97171643e-02
-8.43244547e-04, 1.97178815e-02
-8.42944253e-04, 1.97186042e-02
-8.42643960e-04, 1.97193250e-02
-8.42343667e-04, 1.97200458e-02
-8.42043373e-04, 1.97207667e-02
-8.41743080e-04, 1.97214838e-02
-8.41442787e-04, 1.97222047e-02
-8.41142493e-04, 1.97229255e-02
-8.40842200e-04, 1.97236463e-02
-8.40541907e-04, 1.97243653e-02
-8.40241613e-04, 1.97250843e-02
-8.39941320e-04, 1.97258051e-02
-8.39641027e-04, 1.97265260e-02
-8.39340733e-04, 1.97272450e-02
-8.39040440e-04, 1.97279677e-02
-8.38740147e-04, 1.97286885e-02
-8.38439853e-04, 1.97294075e-02
-8.38139560e-04, 1.97301283e-02
-8.37839267e-04, 1.97308492e-02
-8.37538973e-04, 1.97315682e-02
-8.37238680e-04, 1.97322909e-02
-8.36938387e-04, 1.97330117e-02
-8.36638093e-04, 1.97337288e-02
-8.36337800e-04, 1.97344497e-02
-8.36037507e-04, 1.97351724e-02
-8.35737213e-04, 1.97358932e-02
-8.35436920e-04, 1.97366141e-02
-8.35136627e-04, 1.97373349e-02
-8.34836334e-04, 1.97380539e-02
-8.34536040e-04, 1.97387747e-02
-8.34235747e-04, 1.97394937e-02
-8.33935454e-04, 1.97402164e-02
-8.33635160e-04, 1.97409373e-02
-8.33334867e-04, 1.97416581e-02
-8.33034574e-04, 1.97423790e-02
-8.32734280e-04, 1.97430998e-02
-8.32433987e-04, 1.97438207e-02
-8.32133694e-04, 1.97445415e-02
-8.31833400e-04, 1.97452623e-02
-8.31533107e-04, 1.97459832e-02
-8.31232814e-04, 1.97467022e-02
-8.30932520e-04, 1.97474230e-02
-8.30632227e-04, 1.97481420e-02
-8.30331934e-04, 1.97488666e-02
-8.30031640e-04, 1.97495855e-02
-8.29731347e-04, 1.97503045e-02
-8.29431054e-04, 1.97510254e-02
-8.29130760e-04, 1.97517499e-02
-8.28830467e-04, 1.97524093e-02
-8.28530174e-04, 1.97530854e-02
-8.28229880e-04, 1.97537281e-02
-8.27929587e-04, 1.97543707e-02
-8.27629294e-04, 1.97550096e-02
-8.27329000e-04, 1.97556503e-02
-8.27028707e-04, 1.97562948e-02
-8.26728414e-04, 1.97569355e-02
-8.26428120e-04, 1.97575800e-02
-8.26127827e-04, 1.97582226e-02
-8.25827534e-04, 1.97588652e-02
-8.25527241e-04, 1.97595078e-02
-8.25226947e-04, 1.97601486e-02
-8.24926654e-04, 1.97607912e-02
-8.24626361e-04, 1.97614338e-02
-8.24326067e-04, 1.97620764e-02
-8.24025774e-04, 1.97627191e-02
-8.23725481e-04, 1.97633617e-02
-8.23425187e-04, 1.97640043e-02
-8.23124894e-04, 1.97646488e-02
-8.22824601e-04, 1.97652914e-02
-8.22524307e-04, 1.97659340e-02
-8.22224014e-04, 1.97665747e-02
-8.21923721e-04, 1.97672173e-02
-8.21623427e-04, 1.97678600e-02
-8.21323134e-04, 1.97685026e-02
-8.21022841e-04, 1.97691452e-02
-8.20722547e-04, 1.97697878e-02
-8.20422254e-04, 1.97704285e-02
-8.20121961e-04, 1.97710730e-02
-8.19821667e-04, 1.97717138e-02
-8.19521374e-04, 1.97723582e-02
-8.19221081e-04, 1.97729990e-02
-8.18920787e-04, 1.97736435e-02
-8.18620494e-04, 1.97742861e-02
-8.18320201e-04, 1.97749287e-02
-8.18019907e-04, 1.97755694e-02
-8.17719614e-04, 1.97762158e-02
-8.17419321e-04, 1.97768435e-02
-8.17119027e-04, 1.97774693e-02
-8.16818734e-04, 1.97780952e-02
-8.16518441e-04, 1.97787229e-02
-8.16218148e-04, 1.97793506e-02
-8.15917854e-04, 1.97799746e-02
-8.15617561e-04, 1.97806023e-02
-8.15317268e-04, 1.97812282e-02
-8.15016974e-04, 1.97818540e-02
-8.14716681e-04, 1.97824817e-02
-8.14416388e-04, 1.97831057e-02
-8.14116094e-04, 1.97837334e-02
-8.13815801e-04, 1.97843611e-02
-8.13515508e-04, 1.97849851e-02
-8.13215214e-04, 1.97856128e-02
-8.12914921e-04, 1.97862405e-02
-8.12614628e-04, 1.97868664e-02
-8.12314334e-04, 1.97874941e-02
-8.12014041e-04, 1.97881218e-02
-8.11713748e-04, 1.97887458e-02
-8.11413454e-04, 1.97893735e-02
-8.11113161e-04, 1.97899994e-02
-8.10812868e-04, 1.97906289e-02
-8.10512574e-04, 1.97912529e-02
-8.10212281e-04, 1.97918806e-02
-8.09911988e-04, 1.97925046e-02
-8.09611694e-04, 1.97931305e-02
-8.09311401e-04, 1.97937600e-02
-8.09011108e-04, 1.97943877e-02
-8.08710814e-04, 1.97950117e-02
-8.08410521e-04, 1.97956376e-02
-8.08110228e-04, 1.97962672e-02
-8.07809934e-04, 1.97968949e-02
-8.07509641e-04, 1.97975188e-02
-8.07209348e-04, 1.97981466e-02
-8.06909055e-04, 1.97987724e-02
-8.06608761e-04, 1.97994020e-02
-8.06308468e-04, 1.98000278e-02
-8.06008175e-04, 1.98006537e-02
-8.05707881e-04, 1.98012795e-02
-8.05407588e-04, 1.98019072e-02
-8.05107295e-04, 1.98025350e-02
-8.04807001e-04, 1.98031608e-02
-8.04506708e-04, 1.98037885e-02
-8.04206415e-04, 1.98044125e-02
-8.03906121e-04, 1.98050421e-02
-8.03605828e-04, 1.98056698e-02
-8.03305535e-04, 1.98062956e-02
-8.03005241e-04, 1.98069233e-02
-8.02704948e-04, 1.98075511e-02
-8.02404655e-04, 1.98081769e-02
-8.02104361e-04, 1.98088028e-02
-8.01804068e-04, 1.98094323e-02
-8.01503775e-04, 1.98100582e-02
-8.01203481e-04, 1.98106840e-02
-8.00903188e-04, 1.98113117e-02
-8.00602895e-04, 1.98119376e-02
-8.00302601e-04, 1.98125672e-02
-8.00002308e-04, 1.98131930e-02
-7.99702015e-04, 1.98138207e-02
-7.99401721e-04, 1.98144484e-02
-7.99101428e-04, 1.98150761e-02
-7.98801135e-04, 1.98156815e-02
-7.98500841e-04, 1.98162869e-02
-7.98200548e-04, 1.98168941e-02
-7.97900255e-04, 1.98174976e-02
-7.97599962e-04, 1.98181067e-02
-7.97299668e-04, 1.98187120e-02
-7.96999375e-04, 1.98193174e-02
-7.96699082e-04, 1.98199227e-02
-7.96398788e-04, 1.98205281e-02
-7.96098495e-04, 1.98211335e-02
-7.95798202e-04, 1.98217388e-02
-7.95497908e-04, 1.98223442e-02
-7.95197615e-04, 1.98229495e-02
-7.94897322e-04, 1.98235568e-02
-7.94597028e-04, 1.98241621e-02
-7.94296735e-04, 1.98247693e-02
-7.93996442e-04, 1.98253747e-02
-7.93696148e-04, 1.98259801e-02
-7.93395855e-04, 1.98265873e-02
-7.93095562e-04, 1.98271908e-02
-7.92795268e-04, 1.98277980e-02
-7.92494975e-04, 1.98284015e-02
-7.92194682e-04, 1.98290087e-02
-7.91894388e-04, 1.98296160e-02
-7.91594095e-04, 1.98302194e-02
-7.91293802e-04, 1.98308248e-02
-7.90993508e-04, 1.98314320e-02
-7.90693215e-04, 1.98320411e-02
-7.90392922e-04, 1.98326465e-02
-7.90092628e-04, 1.98332500e-02
-7.89792335e-04, 1.98338572e-02
-7.89492042e-04, 1.98344626e-02
-7.89191748e-04, 1.98350679e-02
-7.88891455e-04, 1.98356751e-02
-7.88591162e-04, 1.98362824e-02
-7.88290869e-04, 1.98368896e-02
-7.87990575e-04, 1.98374949e-02
-7.87690282e-04, 1.98381022e-02
-7.87389989e-04, 1.98387075e-02
-7.87089695e-04, 1.98393129e-02
-7.86789402e-04, 1.98399182e-02
-7.86489109e-04, 1.98405236e-02
-7.86188815e-04, 1.98411327e-02
-7.85888522e-04, 1.98417362e-02
-7.85588229e-04, 1.98423415e-02
-7.85287935e-04, 1.98429488e-02
-7.84987642e-04, 1.98435560e-02
-7.84687349e-04, 1.98441613e-02
-7.84387055e-04, 1.98447686e-02
-7.84086762e-04, 1.98453758e-02
-7.83786469e-04, 1.98459812e-02
-7.83486175e-04, 1.98465865e-02
-7.83185882e-04, 1.98471937e-02
-7.82885589e-04, 1.98478010e-02
-7.82585295e-04, 1.98484063e-02
-7.82285002e-04, 1.98490117e-02
-7.81984709e-04, 1.98496170e-02
-7.81684415e-04, 1.98502280e-02
-7.81384122e-04, 1.98508333e-02
-7.81083829e-04, 1.98514350e-02
-7.80783535e-04, 1.98520441e-02
-7.80483242e-04, 1.98526513e-02
-7.80182949e-04, 1.98532585e-02
-7.79882655e-04, 1.98538639e-02
-7.79582362e-04, 1.98544692e-02
-7.79282069e-04, 1.98550783e-02
-7.78981776e-04, 1.98556837e-02
-7.78681482e-04, 1.98562909e-02
-7.78381189e-04, 1.98568963e-02
-7.78080896e-04, 1.98575016e-02
-7.77780602e-04, 1.98581088e-02
-7.77480309e-04, 1.98587161e-02
-7.77180016e-04, 1.98593233e-02
-7.76879722e-04, 1.98599286e-02
-7.76579429e-04, 1.98605359e-02
-7.76279136e-04, 1.98611412e-02
-7.75978842e-04, 1.98617484e-02
-7.75678549e-04, 1.98623575e-02
-7.75378256e-04, 1.98629610e-02
-7.75077962e-04, 1.98635701e-02
-7.74777669e-04, 1.98641755e-02
-7.74477376e-04, 1.98647827e-02
-7.74177082e-04, 1.98653899e-02
-7.73876789e-04, 1.98659971e-02
-7.73576496e-04, 1.98666025e-02
-7.73276202e-04, 1.98672097e-02
-7.72975909e-04, 1.98678151e-02
-7.72675616e-04, 1.98684242e-02
-7.72375322e-04, 1.98690295e-02
-7.72075029e-04, 1.98696367e-02
-7.71774736e-04, 1.98702458e-02
-7.71474442e-04, 1.98708512e-02
-7.71174149e-04, 1.98714584e-02
-7.70873856e-04, 1.98720656e-02
-7.70573562e-04, 1.98726710e-02
-7.70273269e-04, 1.98732782e-02
-7.69972976e-04, 1.98738836e-02
-7.69672683e-04, 1.98744908e-02
-7.69372389e-04, 1.98750980e-02
-7.69072096e-04, 1.98757052e-02
-7.68771803e-04, 1.98763125e-02
-7.68471509e-04, 1.98769197e-02
-7.68171216e-04, 1.98775269e-02
-7.67870923e-04, 1.98781360e-02
-7.67570629e-04, 1.98787414e-02
-7.67270336e-04, 1.98793486e-02
-7.66970043e-04, 1.98799558e-02
-7.66669749e-04, 1.98805612e-02
-7.66369456e-04, 1.98811684e-02
-7.66069163e-04, 1.98817756e-02
-7.65768869e-04, 1.98823828e-02
-7.65468576e-04, 1.98829882e-02
-7.65168283e-04, 1.98835973e-02
-7.64867989e-04, 1.98842045e-02
-7.64567696e-04, 1.98848117e-02
-7.64267403e-04, 1.98854208e-02
-7.63967109e-04, 1.98860262e-02
-7.63666816e-04, 1.98866334e-02
-7.63366523e-04, 1.98872406e-02
-7.63066229e-04, 1.98878478e-02
-7.62765936e-04, 1.98884569e-02
-7.62465643e-04, 1.98890641e-02
-7.62165349e-04, 1.98896695e-02
-7.61865056e-04, 1.98902786e-02
-7.61564763e-04, 1.98908839e-02
-7.61264469e-04, 1.98914930e-02
-7.60964176e-04, 1.98921002e-02
-7.60663883e-04, 1.98927075e-02
-7.60363590e-04, 1.98933147e-02
-7.60063296e-04, 1.98939200e-02
-7.59763003e-04, 1.98945291e-02
-7.59462710e-04, 1.98951364e-02
-7.59162416e-04, 1.98957436e-02
-7.58862123e-04, 1.98963508e-02
-7.58561830e-04, 1.98969580e-02
-7.58261536e-04, 1.98975671e-02
-7.57961243e-04, 1.98981743e-02
-7.57660950e-04, 1.98987816e-02
-7.57360656e-04, 1.98993888e-02
-7.57060363e-04, 1.98999960e-02
-7.56760070e-04, 1.99006032e-02
-7.56459776e-04, 1.99012142e-02
-7.56159483e-04, 1.99018158e-02
-7.55859190e-04, 1.99024267e-02
-7.55558896e-04, 1.99030321e-02
-7.55258603e-04, 1.99036412e-02
-7.54958310e-04, 1.99042447e-02
-7.54658016e-04, 1.99048556e-02
-7.54357723e-04, 1.99054647e-02
-7.54057430e-04, 1.99060701e-02
-7.53757136e-04, 1.99066792e-02
-7.53456843e-04, 1.99072864e-02
-7.53156550e-04, 1.99078955e-02
-7.52856256e-04, 1.99085008e-02
-7.52555963e-04, 1.99091099e-02
-7.52255670e-04, 1.99097171e-02
-7.51955376e-04, 1.99103262e-02
-7.51655083e-04, 1.99109130e-02
-7.51354790e-04, 1.99114997e-02
-7.51054497e-04, 1.99120790e-02
-7.50754203e-04, 1.99126620e-02
-7.50453910e-04, 1.99132469e-02
-7.50153617e-04, 1.99139118e-02
-7.49853323e-04, 1.99143235e-02
-7.49553030e-04, 1.99148059e-02
-7.49252737e-04, 1.99152883e-02
-7.48952443e-04, 1.99157707e-02
-7.48652150e-04, 1.99162550e-02
-7.48351857e-04, 1.99167393e-02
-7.48051563e-04, 1.99172217e-02
-7.47751270e-04, 1.99177042e-02
-7.47450977e-04, 1.99181847e-02
-7.47150683e-04, 1.99186690e-02
-7.46850390e-04, 1.99191533e-02
-7.46550097e-04, 1.99196339e-02
-7.46249803e-04, 1.99201182e-02
-7.45949510e-04, 1.99206006e-02
-7.45649217e-04, 1.99210830e-02
-7.45348923e-04, 1.99215654e-02
-7.45048630e-04, 1.99220497e-02
-7.44748337e-04, 1.99225321e-02
-7.44448043e-04, 1.99227240e-02
-7.44147750e-04, 1.99234318e-02
-7.43847457e-04, 1.99237708e-02
-7.43547163e-04, 1.99241117e-02
-7.43246870e-04, 1.99244488e-02
-7.42946577e-04, 1.99247878e-02
-7.42646283e-04, 1.99251268e-02
-7.42345990e-04, 1.99254658e-02
-7.42045697e-04, 1.99258067e-02
-7.41745404e-04, 1.99261438e-02
-7.41445110e-04, 1.99264828e-02
-7.41144817e-04, 1.99268218e-02
-7.40844524e-04, 1.99271608e-02
-7.40544230e-04, 1.99274998e-02
-7.40243937e-04, 1.99278407e-02
-7.39943644e-04, 1.99281797e-02
-7.39643350e-04, 1.99285168e-02
-7.39343057e-04, 1.99288558e-02
-7.39042764e-04, 1.99291967e-02
-7.38742470e-04, 1.99295357e-02
-7.38442177e-04, 1.99298747e-02
-7.38141884e-04, 1.99302118e-02
-7.37841590e-04, 1.99305508e-02
-7.37541297e-04, 1.99308917e-02
-7.37241004e-04, 1.99312307e-02
-7.36940710e-04, 1.99313685e-02
-7.36640417e-04, 1.99312102e-02
-7.36340124e-04, 1.99320018e-02
-7.36039830e-04, 1.99322384e-02
-7.35739537e-04, 1.99324749e-02
-7.35439244e-04, 1.99327115e-02
-7.35138950e-04, 1.99329462e-02
-7.34838657e-04, 1.99331846e-02
-7.34538364e-04, 1.99334193e-02
-7.34238070e-04, 1.99336577e-02
-7.33937777e-04, 1.99338924e-02
-7.33637484e-04, 1.99341290e-02
-7.33337190e-04, 1.99343674e-02
-7.33036897e-04, 1.99346021e-02
-7.32736604e-04, 1.99348386e-02
-7.32436310e-04, 1.99350771e-02
-7.32136017e-04, 1.99353136e-02
-7.31835724e-04, 1.99355502e-02
-7.31535431e-04, 1.99357867e-02
-7.31235137e-04, 1.99360233e-02
-7.30934844e-04, 1.99362598e-02
-7.30634551e-04, 1.99364983e-02
-7.30334257e-04, 1.99367348e-02
-7.30033964e-04, 1.99369695e-02
-7.29733671e-04, 1.99372061e-02
-7.29433377e-04, 1.99374426e-02
-7.29133084e-04, 1.99376792e-02
-7.28832791e-04, 1.99379157e-02
-7.28532497e-04, 1.99381541e-02
-7.28232204e-04, 1.99383907e-02
-7.27931911e-04, 1.99386291e-02
-7.27631617e-04, 1.99388657e-02
-7.27331324e-04, 1.99391004e-02
-7.27031031e-04, 1.99393388e-02
-7.26730737e-04, 1.99395735e-02
-7.26430444e-04, 1.99398100e-02
-7.26130151e-04, 1.99400485e-02
-7.25829857e-04, 1.99402831e-02
-7.25529564e-04, 1.99405234e-02
-7.25229271e-04, 1.99407600e-02
-7.24928977e-04, 1.99409965e-02
-7.24628684e-04, 1.99412331e-02
-7.24328391e-04, 1.99414715e-02
-7.24028097e-04, 1.99417062e-02
-7.23727804e-04, 1.99419446e-02
-7.23427511e-04, 1.99421793e-02
-7.23127217e-04, 1.99424177e-02
-7.22826924e-04, 1.99426543e-02
-7.22526631e-04, 1.99428927e-02
-7.22226338e-04, 1.99431293e-02
-7.21926044e-04, 1.99433658e-02
-7.21625751e-04, 1.99436042e-02
-7.21325458e-04, 1.99438389e-02
-7.21025164e-04, 1.99440792e-02
-7.20724871e-04, 1.99443158e-02
-7.20424578e-04, 1.99445523e-02
-7.20124284e-04, 1.99447870e-02
-7.19823991e-04, 1.99450273e-02
-7.19523698e-04, 1.99452657e-02
-7.19223404e-04, 1.99455004e-02
-7.18923111e-04, 1.99457388e-02
-7.18622818e-04, 1.99459754e-02
-7.18322524e-04, 1.99462119e-02
-7.18022231e-04, 1.99464504e-02
-7.17721938e-04, 1.99466851e-02
-7.17421644e-04, 1.99469253e-02
-7.17121351e-04, 1.99471619e-02
-7.16821058e-04, 1.99473985e-02
-7.16520764e-04, 1.99476369e-02
-7.16220471e-04, 1.99478753e-02
-7.15920178e-04, 1.99481100e-02
-7.15619884e-04, 1.99483503e-02
-7.15319591e-04, 1.99485850e-02
-7.15019298e-04, 1.99488215e-02
-7.14719004e-04, 1.99490618e-02
-7.14418711e-04, 1.99493002e-02
-7.14118418e-04, 1.99495349e-02
-7.13818124e-04, 1.99497733e-02
