[Name]
Series 1 for Case v9_m5_350 at /LINE:Line horizontal 28

[Data]
X [ m ],Velocity [ m s^-1 ]
2.09999993e-03, 1.58176329e-02
2.10030028e-03, 1.58163309e-02
2.10060063e-03, 1.58150289e-02
2.10090098e-03, 1.58137251e-02
2.10120133e-03, 1.58124231e-02
2.10150168e-03, 1.58111192e-02
2.10180203e-03, 1.58098191e-02
2.10210239e-03, 1.58085153e-02
2.10240274e-03, 1.58072133e-02
2.10270309e-03, 1.58059094e-02
2.10300344e-03, 1.58046093e-02
2.10330379e-03, 1.58033073e-02
2.10360414e-03, 1.58020034e-02
2.10390450e-03, 1.58007015e-02
2.10420485e-03, 1.57993417e-02
2.10450520e-03, 1.57982726e-02
2.10480555e-03, 1.57971662e-02
2.10510590e-03, 1.57960616e-02
2.10540625e-03, 1.57949533e-02
2.10570660e-03, 1.57938469e-02
2.10600696e-03, 1.57927386e-02
2.10630731e-03, 1.57916322e-02
2.10660766e-03, 1.57905277e-02
2.10690801e-03, 1.57894213e-02
2.10720836e-03, 1.57883149e-02
2.10750871e-03, 1.57872085e-02
2.10780906e-03, 1.57861002e-02
2.10810942e-03, 1.57849938e-02
2.10840977e-03, 1.57838892e-02
2.10871012e-03, 1.57827809e-02
2.10901047e-03, 1.57816745e-02
2.10931082e-03, 1.57805681e-02
2.10961117e-03, 1.57794617e-02
2.10991153e-03, 1.57783534e-02
2.11021188e-03, 1.57772470e-02
2.11051223e-03, 1.57761425e-02
2.11081258e-03, 1.57750379e-02
2.11111293e-03, 1.57737732e-02
2.11141328e-03, 1.57728773e-02
2.11171363e-03, 1.57718379e-02
2.11201399e-03, 1.57707967e-02
2.11231434e-03, 1.57697573e-02
2.11261469e-03, 1.57687198e-02
2.11291504e-03, 1.57676786e-02
2.11321539e-03, 1.57666393e-02
2.11351574e-03, 1.57655999e-02
2.11381610e-03, 1.57645624e-02
2.11411645e-03, 1.57635231e-02
2.11441680e-03, 1.57624837e-02
2.11471715e-03, 1.57614443e-02
2.11501750e-03, 1.57604069e-02
2.11531785e-03, 1.57593656e-02
2.11561820e-03, 1.57583281e-02
2.11591856e-03, 1.57572888e-02
2.11621891e-03, 1.57562494e-02
2.11651926e-03, 1.57552101e-02
2.11681961e-03, 1.57541689e-02
2.11711996e-03, 1.57531314e-02
2.11742031e-03, 1.57520920e-02
2.11772067e-03, 1.57510526e-02
2.11802102e-03, 1.57500133e-02
2.11832137e-03, 1.57489739e-02
2.11862172e-03, 1.57479346e-02
2.11892207e-03, 1.57468952e-02
2.11922242e-03, 1.57460663e-02
2.11952277e-03, 1.57451164e-02
2.11982313e-03, 1.57442559e-02
2.12012348e-03, 1.57433972e-02
2.12042383e-03, 1.57425385e-02
2.12072418e-03, 1.57416798e-02
2.12102453e-03, 1.57408211e-02
2.12132488e-03, 1.57399606e-02
2.12162524e-03, 1.57391019e-02
2.12192559e-03, 1.57382432e-02
2.12222594e-03, 1.57373846e-02
2.12252629e-03, 1.57365259e-02
2.12282664e-03, 1.57356672e-02
2.12312699e-03, 1.57348067e-02
2.12342734e-03, 1.57339480e-02
2.12372770e-03, 1.57330893e-02
2.12402805e-03, 1.57322288e-02
2.12432840e-03, 1.57313701e-02
2.12462875e-03, 1.57305114e-02
2.12492910e-03, 1.57296527e-02
2.12522945e-03, 1.57287922e-02
2.12552981e-03, 1.57279354e-02
2.12583016e-03, 1.57270767e-02
2.12613051e-03, 1.57262161e-02
2.12643086e-03, 1.57253575e-02
2.12673121e-03, 1.57244988e-02
2.12703156e-03, 1.57236401e-02
2.12733191e-03, 1.57227814e-02
2.12763227e-03, 1.57219227e-02
2.12793262e-03, 1.57210622e-02
2.12823297e-03, 1.57202054e-02
2.12853332e-03, 1.57193448e-02
2.12883367e-03, 1.57184862e-02
2.12913402e-03, 1.57176275e-02
2.12943438e-03, 1.57167688e-02
2.12973473e-03, 1.57159101e-02
2.13003508e-03, 1.57150496e-02
2.13033543e-03, 1.57141909e-02
2.13063578e-03, 1.57133341e-02
2.13093613e-03, 1.57124735e-02
2.13123648e-03, 1.57116149e-02
2.13153684e-03, 1.57107562e-02
2.13183719e-03, 1.57098956e-02
2.13213754e-03, 1.57090388e-02
2.13243789e-03, 1.57081783e-02
2.13273824e-03, 1.57073196e-02
2.13303859e-03, 1.57064591e-02
2.13333894e-03, 1.57056022e-02
2.13363930e-03, 1.57047417e-02
2.13393965e-03, 1.57038849e-02
2.13424000e-03, 1.57030243e-02
2.13454035e-03, 1.57021657e-02
2.13484070e-03, 1.57013051e-02
2.13514105e-03, 1.57004483e-02
2.13544141e-03, 1.56995878e-02
2.13574176e-03, 1.56987291e-02
2.13604211e-03, 1.56978704e-02
2.13634246e-03, 1.56970117e-02
2.13664281e-03, 1.56961530e-02
2.13694316e-03, 1.56952944e-02
2.13724351e-03, 1.56944357e-02
2.13754387e-03, 1.56935751e-02
2.13784422e-03, 1.56927183e-02
2.13814457e-03, 1.56918578e-02
2.13844492e-03, 1.56909991e-02
2.13874527e-03, 1.56901423e-02
2.13904562e-03, 1.56892817e-02
2.13934598e-03, 1.56884231e-02
2.13964633e-03, 1.56875644e-02
2.13994668e-03, 1.56867057e-02
2.14024703e-03, 1.56858470e-02
2.14054738e-03, 1.56849883e-02
2.14084773e-03, 1.56841278e-02
2.14114808e-03, 1.56832691e-02
2.14144844e-03, 1.56824086e-02
2.14174879e-03, 1.56815518e-02
2.14204914e-03, 1.56806912e-02
2.14234949e-03, 1.56798325e-02
2.14264984e-03, 1.56789739e-02
2.14295019e-03, 1.56781152e-02
2.14325055e-03, 1.56772565e-02
2.14355090e-03, 1.56763978e-02
2.14385125e-03, 1.56755410e-02
2.14415160e-03, 1.56746805e-02
2.14445195e-03, 1.56738218e-02
2.14475230e-03, 1.56729631e-02
2.14505265e-03, 1.56721026e-02
2.14535301e-03, 1.56712439e-02
2.14565336e-03, 1.56703852e-02
2.14595371e-03, 1.56695265e-02
2.14625406e-03, 1.56686679e-02
2.14655441e-03, 1.56678092e-02
2.14685476e-03, 1.56669505e-02
2.14715512e-03, 1.56660918e-02
2.14745547e-03, 1.56652331e-02
2.14775582e-03, 1.56643745e-02
2.14805617e-03, 1.56635139e-02
2.14835652e-03, 1.56626571e-02
2.14865687e-03, 1.56617966e-02
2.14895722e-03, 1.56609379e-02
2.14925758e-03, 1.56600792e-02
2.14955793e-03, 1.56592205e-02
2.14985828e-03, 1.56583618e-02
2.15015863e-03, 1.56575013e-02
2.15045898e-03, 1.56566426e-02
2.15075933e-03, 1.56557839e-02
2.15105969e-03, 1.56549253e-02
2.15136004e-03, 1.56540647e-02
2.15166039e-03, 1.56532079e-02
2.15196074e-03, 1.56523492e-02
2.15226109e-03, 1.56514905e-02
2.15256144e-03, 1.56506319e-02
2.15286179e-03, 1.56497713e-02
2.15316215e-03, 1.56489126e-02
2.15346250e-03, 1.56480540e-02
2.15376285e-03, 1.56471953e-02
2.15406320e-03, 1.56463366e-02
2.15436355e-03, 1.56454779e-02
2.15466390e-03, 1.56446192e-02
2.15496426e-03, 1.56437606e-02
2.15526461e-03, 1.56429019e-02
2.15556496e-03, 1.56420432e-02
2.15586531e-03, 1.56411845e-02
2.15616566e-03, 1.56403240e-02
2.15646601e-03, 1.56394672e-02
2.15676636e-03, 1.56386085e-02
2.15706672e-03, 1.56377479e-02
2.15736707e-03, 1.56368911e-02
2.15766742e-03, 1.56360324e-02
2.15796777e-03, 1.56351738e-02
2.15826812e-03, 1.56343132e-02
2.15856847e-03, 1.56334564e-02
2.15886883e-03, 1.56325959e-02
2.15916918e-03, 1.56317372e-02
2.15946953e-03, 1.56308785e-02
2.15976988e-03, 1.56300180e-02
2.16007023e-03, 1.56291611e-02
2.16037058e-03, 1.56283025e-02
2.16067093e-03, 1.56274419e-02
2.16097129e-03, 1.56265851e-02
2.16127164e-03, 1.56257246e-02
2.16157199e-03, 1.56248678e-02
2.16187234e-03, 1.56240081e-02
2.16217269e-03, 1.56231485e-02
2.16247304e-03, 1.56222908e-02
2.16277339e-03, 1.56214330e-02
2.16307375e-03, 1.56205734e-02
2.16337410e-03, 1.56197138e-02
2.16367445e-03, 1.56188551e-02
2.16397480e-03, 1.56179965e-02
2.16427515e-03, 1.56171359e-02
2.16457550e-03, 1.56162791e-02
2.16487586e-03, 1.56154195e-02
2.16517621e-03, 1.56145608e-02
2.16547656e-03, 1.56137021e-02
2.16577691e-03, 1.56128434e-02
2.16607726e-03, 1.56119857e-02
2.16637761e-03, 1.56111261e-02
2.16667796e-03, 1.56102665e-02
2.16697832e-03, 1.56094087e-02
2.16727867e-03, 1.56085500e-02
2.16757902e-03, 1.56076904e-02
2.16787937e-03, 1.56068318e-02
2.16817972e-03, 1.56059740e-02
2.16848007e-03, 1.56051153e-02
2.16878043e-03, 1.56042557e-02
2.16908078e-03, 1.56033980e-02
2.16938113e-03, 1.56025374e-02
2.16968148e-03, 1.56016788e-02
2.16998183e-03, 1.56008210e-02
2.17028218e-03, 1.55999614e-02
2.17058253e-03, 1.55991036e-02
2.17088289e-03, 1.55982450e-02
2.17118324e-03, 1.55973863e-02
2.17148359e-03, 1.55965276e-02
2.17178394e-03, 1.55956680e-02
2.17208429e-03, 1.55948093e-02
2.17238464e-03, 1.55939497e-02
2.17268500e-03, 1.55930426e-02
2.17298535e-03, 1.55921718e-02
2.17328570e-03, 1.55913001e-02
2.17358605e-03, 1.55904293e-02
2.17388640e-03, 1.55895567e-02
2.17418675e-03, 1.55886859e-02
2.17448710e-03, 1.55878123e-02
2.17478746e-03, 1.55869415e-02
2.17508781e-03, 1.55860689e-02
2.17538816e-03, 1.55851971e-02
2.17568851e-03, 1.55843254e-02
2.17598886e-03, 1.55834537e-02
2.17628921e-03, 1.55825829e-02
2.17658957e-03, 1.55817103e-02
2.17688992e-03, 1.55808404e-02
2.17719027e-03, 1.55799678e-02
2.17749062e-03, 1.55790960e-02
2.17779097e-03, 1.55782225e-02
2.17809132e-03, 1.55773517e-02
2.17839167e-03, 1.55764809e-02
2.17869203e-03, 1.55756082e-02
2.17899238e-03, 1.55747375e-02
2.17929273e-03, 1.55738648e-02
2.17959308e-03, 1.55729949e-02
2.17989343e-03, 1.55721214e-02
2.18019378e-03, 1.55712487e-02
2.18049414e-03, 1.55703770e-02
2.18079449e-03, 1.55695062e-02
2.18109484e-03, 1.55686345e-02
2.18139519e-03, 1.55677618e-02
2.18169554e-03, 1.55668901e-02
2.18199589e-03, 1.55660193e-02
2.18229624e-03, 1.55651467e-02
2.18259660e-03, 1.55642759e-02
2.18289695e-03, 1.55634042e-02
2.18319730e-03, 1.55625315e-02
2.18349765e-03, 1.55615974e-02
2.18379800e-03, 1.55605432e-02
2.18409835e-03, 1.55594116e-02
2.18439871e-03, 1.55582782e-02
2.18469906e-03, 1.55571448e-02
2.18499941e-03, 1.55560113e-02
2.18529976e-03, 1.55548807e-02
2.18560011e-03, 1.55537473e-02
2.18590046e-03, 1.55526139e-02
2.18620081e-03, 1.55514823e-02
2.18650117e-03, 1.55503508e-02
2.18680152e-03, 1.55492174e-02
2.18710187e-03, 1.55480849e-02
2.18740222e-03, 1.55469514e-02
2.18770257e-03, 1.55458208e-02
2.18800292e-03, 1.55446865e-02
2.18830328e-03, 1.55435530e-02
2.18860363e-03, 1.55424206e-02
2.18890398e-03, 1.55412639e-02
2.18920433e-03, 1.55400122e-02
2.18950468e-03, 1.55389728e-02
2.18980503e-03, 1.55378180e-02
2.19010538e-03, 1.55366631e-02
2.19040574e-03, 1.55355074e-02
2.19070609e-03, 1.55343525e-02
2.19100644e-03, 1.55331949e-02
2.19130679e-03, 1.55320400e-02
2.19160714e-03, 1.55308852e-02
2.19190749e-03, 1.55297294e-02
2.19220784e-03, 1.55285737e-02
2.19250820e-03, 1.55274170e-02
2.19280855e-03, 1.55262612e-02
2.19310890e-03, 1.55251082e-02
2.19340925e-03, 1.55239524e-02
2.19370960e-03, 1.55227976e-02
2.19400995e-03, 1.55216400e-02
2.19431031e-03, 1.55204842e-02
2.19461066e-03, 1.55193293e-02
2.19491101e-03, 1.55181745e-02
2.19521136e-03, 1.55170178e-02
2.19551171e-03, 1.55158630e-02
2.19581206e-03, 1.55147063e-02
2.19611241e-03, 1.55135524e-02
2.19641277e-03, 1.55123975e-02
2.19671312e-03, 1.55112408e-02
2.19701347e-03, 1.55100860e-02
2.19731382e-03, 1.55089293e-02
2.19761417e-03, 1.55077754e-02
2.19791452e-03, 1.55066205e-02
2.19821488e-03, 1.55054647e-02
2.19851523e-03, 1.55043071e-02
2.19881558e-03, 1.55031532e-02
2.19911593e-03, 1.55019965e-02
2.19941628e-03, 1.55008398e-02
2.19971663e-03, 1.54996859e-02
2.20001698e-03, 1.54985311e-02
2.20031734e-03, 1.54973762e-02
2.20061769e-03, 1.54962214e-02
2.20091804e-03, 1.54950647e-02
2.20121839e-03, 1.54939098e-02
2.20151874e-03, 1.54927541e-02
2.20181909e-03, 1.54915974e-02
2.20211945e-03, 1.54904434e-02
2.20241980e-03, 1.54892877e-02
2.20272015e-03, 1.54881310e-02
2.20302050e-03, 1.54869761e-02
2.20332085e-03, 1.54858204e-02
2.20362120e-03, 1.54846646e-02
2.20392155e-03, 1.54835097e-02
2.20422191e-03, 1.54823540e-02
2.20452226e-03, 1.54812001e-02
2.20482261e-03, 1.54800452e-02
2.20512296e-03, 1.54788876e-02
2.20542331e-03, 1.54777085e-02
2.20572366e-03, 1.54764261e-02
2.20602402e-03, 1.54751455e-02
2.20632437e-03, 1.54738659e-02
2.20662472e-03, 1.54725835e-02
2.20692507e-03, 1.54713038e-02
2.20722542e-03, 1.54700223e-02
2.20752577e-03, 1.54687427e-02
2.20782612e-03, 1.54674612e-02
2.20812648e-03, 1.54661816e-02
2.20842683e-03, 1.54649001e-02
2.20872718e-03, 1.54636195e-02
2.20902753e-03, 1.54623371e-02
2.20932788e-03, 1.54610574e-02
2.20962823e-03, 1.54597750e-02
2.20992859e-03, 1.54584944e-02
2.21022894e-03, 1.54572148e-02
2.21052929e-03, 1.54559342e-02
2.21082964e-03, 1.54546537e-02
2.21112999e-03, 1.54533722e-02
2.21143034e-03, 1.54520907e-02
2.21173069e-03, 1.54508110e-02
2.21203105e-03, 1.54495304e-02
2.21233140e-03, 1.54482489e-02
2.21263175e-03, 1.54469674e-02
2.21293210e-03, 1.54456869e-02
2.21323245e-03, 1.54444072e-02
2.21353280e-03, 1.54431257e-02
2.21383316e-03, 1.54418452e-02
2.21413351e-03, 1.54405637e-02
2.21443386e-03, 1.54392831e-02
2.21473421e-03, 1.54380025e-02
2.21503456e-03, 1.54367229e-02
2.21533491e-03, 1.54354414e-02
2.21563526e-03, 1.54341618e-02
2.21593562e-03, 1.54328784e-02
2.21623597e-03, 1.54315978e-02
2.21653632e-03, 1.54303173e-02
2.21683667e-03, 1.54290376e-02
2.21713702e-03, 1.54277561e-02
2.21743737e-03, 1.54264746e-02
2.21773773e-03, 1.54251941e-02
2.21803808e-03, 1.54239144e-02
2.21833843e-03, 1.54226329e-02
2.21863878e-03, 1.54213523e-02
2.21893913e-03, 1.54200718e-02
2.21923948e-03, 1.54187912e-02
2.21953983e-03, 1.54175106e-02
2.21984019e-03, 1.54162282e-02
2.22014054e-03, 1.54149476e-02
2.22044089e-03, 1.54136671e-02
2.22074124e-03, 1.54123865e-02
2.22104159e-03, 1.54111926e-02
2.22134194e-03, 1.54098365e-02
2.22164229e-03, 1.54085252e-02
2.22194265e-03, 1.54072242e-02
2.22224300e-03, 1.54059213e-02
2.22254335e-03, 1.54046165e-02
2.22284370e-03, 1.54033145e-02
2.22314405e-03, 1.54020097e-02
2.22344440e-03, 1.54007068e-02
2.22374476e-03, 1.53994048e-02
2.22404511e-03, 1.53981028e-02
2.22434546e-03, 1.53968008e-02
2.22464581e-03, 1.53954960e-02
2.22494616e-03, 1.53941950e-02
2.22524651e-03, 1.53928930e-02
2.22554686e-03, 1.53915873e-02
2.22584722e-03, 1.53902862e-02
2.22614757e-03, 1.53889814e-02
2.22644792e-03, 1.53876795e-02
2.22674827e-03, 1.53863775e-02
2.22704862e-03, 1.53850745e-02
2.22734897e-03, 1.53837698e-02
2.22764933e-03, 1.53824678e-02
2.22794968e-03, 1.53811676e-02
2.22825003e-03, 1.53798619e-02
2.22855038e-03, 1.53785599e-02
2.22885073e-03, 1.53772570e-02
2.22915108e-03, 1.53759550e-02
2.22945143e-03, 1.53746521e-02
2.22975179e-03, 1.53733483e-02
2.23005214e-03, 1.53720453e-02
2.23035249e-03, 1.53707443e-02
2.23065284e-03, 1.53694395e-02
2.23095319e-03, 1.53681347e-02
2.23125354e-03, 1.53668337e-02
2.23155390e-03, 1.53655317e-02
2.23185425e-03, 1.53642287e-02
2.23215460e-03, 1.53629249e-02
2.23245495e-03, 1.53616229e-02
2.23275530e-03, 1.53603209e-02
2.23305565e-03, 1.53590189e-02
2.23335600e-03, 1.53577141e-02
2.23365636e-03, 1.53564112e-02
2.23395671e-03, 1.53551083e-02
2.23425706e-03, 1.53538054e-02
2.23455741e-03, 1.53525025e-02
2.23485776e-03, 1.53511995e-02
2.23515811e-03, 1.53498985e-02
2.23545847e-03, 1.53485946e-02
2.23575882e-03, 1.53472917e-02
2.23605917e-03, 1.53459888e-02
2.23635952e-03, 1.53446859e-02
2.23665987e-03, 1.53434854e-02
2.23696022e-03, 1.53422849e-02
2.23726057e-03, 1.53410854e-02
2.23756093e-03, 1.53398858e-02
2.23786128e-03, 1.53386872e-02
2.23816163e-03, 1.53374868e-02
2.23846198e-03, 1.53362872e-02
2.23876233e-03, 1.53350886e-02
2.23906268e-03, 1.53338881e-02
2.23936304e-03, 1.53326886e-02
2.23966339e-03, 1.53314900e-02
2.23996374e-03, 1.53302541e-02
2.24026409e-03, 1.53290834e-02
2.24056444e-03, 1.53278792e-02
2.24086479e-03, 1.53266722e-02
2.24116514e-03, 1.53254671e-02
2.24146550e-03, 1.53242610e-02
2.24176585e-03, 1.53230568e-02
2.24206620e-03, 1.53218498e-02
2.24236655e-03, 1.53206438e-02
2.24266690e-03, 1.53194396e-02
2.24296725e-03, 1.53182335e-02
2.24326761e-03, 1.53170293e-02
2.24356796e-03, 1.53158223e-02
2.24386831e-03, 1.53146172e-02
2.24416866e-03, 1.53134111e-02
2.24446901e-03, 1.53122060e-02
2.24476936e-03, 1.53110009e-02
2.24506971e-03, 1.53097939e-02
2.24537007e-03, 1.53085897e-02
2.24567042e-03, 1.53073845e-02
2.24597077e-03, 1.53061785e-02
2.24627112e-03, 1.53049724e-02
2.24657147e-03, 1.53037673e-02
2.24687182e-03, 1.53025612e-02
2.24717217e-03, 1.53013542e-02
2.24747253e-03, 1.53001510e-02
2.24777288e-03, 1.52989458e-02
2.24807323e-03, 1.52977388e-02
2.24837358e-03, 1.52965328e-02
2.24867393e-03, 1.52953286e-02
2.24897428e-03, 1.52941216e-02
2.24927464e-03, 1.52929164e-02
2.24957499e-03, 1.52917113e-02
2.24987534e-03, 1.52905062e-02
2.25017569e-03, 1.52892992e-02
2.25047604e-03, 1.52880959e-02
2.25077639e-03, 1.52868889e-02
2.25107674e-03, 1.52856829e-02
2.25137710e-03, 1.52844787e-02
2.25167745e-03, 1.52832717e-02
2.25197780e-03, 1.52820665e-02
2.25227815e-03, 1.52808614e-02
2.25257850e-03, 1.52796563e-02
2.25287885e-03, 1.52784511e-02
2.25317921e-03, 1.52772442e-02
2.25347956e-03, 1.52760400e-02
2.25377991e-03, 1.52748330e-02
2.25408026e-03, 1.52736288e-02
2.25438061e-03, 1.52724227e-02
2.25468096e-03, 1.52712166e-02
2.25498131e-03, 1.52700124e-02
2.25528167e-03, 1.52688064e-02
2.25558202e-03, 1.52676012e-02
2.25588237e-03, 1.52663942e-02
2.25618272e-03, 1.52651900e-02
2.25648307e-03, 1.52639849e-02
2.25678342e-03, 1.52627798e-02
2.25708378e-03, 1.52615728e-02
2.25738413e-03, 1.52603677e-02
2.25768448e-03, 1.52591625e-02
2.25798483e-03, 1.52579574e-02
2.25828518e-03, 1.52567523e-02
2.25858553e-03, 1.52555462e-02
2.25888588e-03, 1.52543401e-02
2.25918624e-03, 1.52531359e-02
2.25948659e-03, 1.52519299e-02
2.25978694e-03, 1.52507257e-02
2.26008729e-03, 1.52495196e-02
2.26038764e-03, 1.52483135e-02
2.26068799e-03, 1.52471084e-02
2.26098835e-03, 1.52459024e-02
2.26128870e-03, 1.52446972e-02
2.26158905e-03, 1.52434902e-02
2.26188940e-03, 1.52422870e-02
2.26218975e-03, 1.52410818e-02
2.26249010e-03, 1.52398758e-02
2.26279045e-03, 1.52386697e-02
2.26309081e-03, 1.52374655e-02
2.26339116e-03, 1.52362594e-02
2.26369151e-03, 1.52350543e-02
2.26399186e-03, 1.52338473e-02
2.26429221e-03, 1.52326431e-02
2.26459256e-03, 1.52314380e-02
2.26489292e-03, 1.52302328e-02
2.26519327e-03, 1.52290286e-02
2.26549362e-03, 1.52278226e-02
2.26579397e-03, 1.52266165e-02
2.26609432e-03, 1.52254114e-02
2.26639467e-03, 1.52242053e-02
2.26669502e-03, 1.52229993e-02
2.26699538e-03, 1.52215715e-02
2.26729573e-03, 1.52204195e-02
2.26759608e-03, 1.52192703e-02
2.26789643e-03, 1.52181191e-02
2.26819678e-03, 1.52169671e-02
2.26849713e-03, 1.52157582e-02
2.26879749e-03, 1.52145438e-02
2.26909784e-03, 1.52133275e-02
2.26939819e-03, 1.52121102e-02
2.26969854e-03, 1.52108949e-02
2.26999889e-03, 1.52096795e-02
2.27029924e-03, 1.52084632e-02
2.27059959e-03, 1.52072478e-02
2.27089995e-03, 1.52060315e-02
2.27120030e-03, 1.52048152e-02
2.27150065e-03, 1.52035998e-02
2.27180100e-03, 1.52023835e-02
2.27210135e-03, 1.52011681e-02
2.27240170e-03, 1.51999518e-02
2.27270206e-03, 1.51987365e-02
2.27300241e-03, 1.51975183e-02
2.27330276e-03, 1.51963029e-02
2.27360311e-03, 1.51950866e-02
2.27390346e-03, 1.51938712e-02
2.27420381e-03, 1.51926549e-02
2.27450416e-03, 1.51914386e-02
2.27480452e-03, 1.51902223e-02
2.27510487e-03, 1.51890069e-02
2.27540522e-03, 1.51877915e-02
2.27570557e-03, 1.51865743e-02
2.27600592e-03, 1.51853589e-02
2.27630627e-03, 1.51841436e-02
2.27660662e-03, 1.51829263e-02
2.27690698e-03, 1.51817109e-02
2.27720733e-03, 1.51804956e-02
2.27750768e-03, 1.51792802e-02
2.27780803e-03, 1.51780639e-02
2.27810838e-03, 1.51768485e-02
2.27840873e-03, 1.51756313e-02
2.27870909e-03, 1.51744159e-02
2.27900944e-03, 1.51731996e-02
2.27930979e-03, 1.51719842e-02
2.27961014e-03, 1.51707688e-02
2.27991049e-03, 1.51695535e-02
2.28021084e-03, 1.51683372e-02
2.28051119e-03, 1.51671218e-02
2.28081155e-03, 1.51659055e-02
2.28111190e-03, 1.51646892e-02
2.28141225e-03, 1.51634747e-02
2.28171260e-03, 1.51622584e-02
2.28201295e-03, 1.51610412e-02
2.28231330e-03, 1.51598258e-02
2.28261366e-03, 1.51586104e-02
2.28291401e-03, 1.51573950e-02
2.28321436e-03, 1.51561797e-02
2.28351471e-03, 1.51549634e-02
2.28381506e-03, 1.51537480e-02
2.28411541e-03, 1.51525307e-02
2.28441576e-03, 1.51513144e-02
2.28471612e-03, 1.51500991e-02
2.28501647e-03, 1.51488837e-02
2.28531682e-03, 1.51476683e-02
2.28561717e-03, 1.51464520e-02
2.28591752e-03, 1.51452366e-02
2.28621787e-03, 1.51440203e-02
2.28651823e-03, 1.51428049e-02
2.28681858e-03, 1.51415896e-02
2.28711893e-03, 1.51403733e-02
2.28741928e-03, 1.51391588e-02
2.28771963e-03, 1.51379416e-02
2.28801998e-03, 1.51367271e-02
2.28832033e-03, 1.51355099e-02
2.28862069e-03, 1.51342945e-02
2.28892104e-03, 1.51330773e-02
2.28922139e-03, 1.51318628e-02
2.28952174e-03, 1.51306465e-02
2.28982209e-03, 1.51294312e-02
2.29012244e-03, 1.51282158e-02
2.29042280e-03, 1.51269995e-02
2.29072315e-03, 1.51257841e-02
2.29102350e-03, 1.51245687e-02
2.29132385e-03, 1.51233524e-02
2.29162420e-03, 1.51221361e-02
2.29192455e-03, 1.51209207e-02
2.29222490e-03, 1.51197063e-02
