[Name]
Series 1 for Case v9_m5_350 at /LINE:Line horizontal 13

[Data]
X [ m ],Velocity [ m s^-1 ]
-2.40000011e-03, 1.47170024e-02
-2.39969976e-03, 1.47182634e-02
-2.39939941e-03, 1.47195235e-02
-2.39909906e-03, 1.47207845e-02
-2.39879871e-03, 1.47214439e-02
-2.39849836e-03, 1.47232199e-02
-2.39819800e-03, 1.47244195e-02
-2.39789765e-03, 1.47256227e-02
-2.39759730e-03, 1.47268232e-02
-2.39729695e-03, 1.47280265e-02
-2.39699660e-03, 1.47292269e-02
-2.39669625e-03, 1.47304274e-02
-2.39639590e-03, 1.47316307e-02
-2.39609554e-03, 1.47328330e-02
-2.39579519e-03, 1.47340344e-02
-2.39549484e-03, 1.47352358e-02
-2.39519449e-03, 1.47364382e-02
-2.39489414e-03, 1.47376396e-02
-2.39459379e-03, 1.47388410e-02
-2.39429343e-03, 1.47400433e-02
-2.39399308e-03, 1.47412438e-02
-2.39369273e-03, 1.47424461e-02
-2.39339238e-03, 1.47436457e-02
-2.39309203e-03, 1.47448499e-02
-2.39279168e-03, 1.47460504e-02
-2.39249133e-03, 1.47472536e-02
-2.39219097e-03, 1.47484550e-02
-2.39189062e-03, 1.47496564e-02
-2.39159027e-03, 1.47508578e-02
-2.39128992e-03, 1.47520583e-02
-2.39098957e-03, 1.47532616e-02
-2.39068922e-03, 1.47544639e-02
-2.39038887e-03, 1.47556625e-02
-2.39008851e-03, 1.47568677e-02
-2.38978816e-03, 1.47580681e-02
-2.38948781e-03, 1.47592695e-02
-2.38918746e-03, 1.47604719e-02
-2.38888711e-03, 1.47616751e-02
-2.38858676e-03, 1.47628756e-02
-2.38828640e-03, 1.47640770e-02
-2.38798605e-03, 1.47652775e-02
-2.38768570e-03, 1.47664798e-02
-2.38738535e-03, 1.47676812e-02
-2.38708500e-03, 1.47688827e-02
-2.38678465e-03, 1.47700859e-02
-2.38648430e-03, 1.47712883e-02
-2.38618394e-03, 1.47724887e-02
-2.38588359e-03, 1.47736920e-02
-2.38558324e-03, 1.47748925e-02
-2.38528289e-03, 1.47760939e-02
-2.38498254e-03, 1.47772962e-02
-2.38468219e-03, 1.47784967e-02
-2.38438183e-03, 1.47796990e-02
-2.38408148e-03, 1.47809004e-02
-2.38378113e-03, 1.47821028e-02
-2.38348078e-03, 1.47833042e-02
-2.38318043e-03, 1.47845065e-02
-2.38288008e-03, 1.47857089e-02
-2.38257973e-03, 1.47869093e-02
-2.38227937e-03, 1.47881117e-02
-2.38197902e-03, 1.47893140e-02
-2.38167867e-03, 1.47905154e-02
-2.38137832e-03, 1.47917178e-02
-2.38107797e-03, 1.47929192e-02
-2.38077762e-03, 1.47941206e-02
-2.38047726e-03, 1.47953220e-02
-2.38017691e-03, 1.47965243e-02
-2.37987656e-03, 1.47977257e-02
-2.37957621e-03, 1.47989271e-02
-2.37927586e-03, 1.48001295e-02
-2.37897551e-03, 1.48013318e-02
-2.37867516e-03, 1.48025323e-02
-2.37837480e-03, 1.48037337e-02
-2.37807445e-03, 1.48049360e-02
-2.37777410e-03, 1.48061393e-02
-2.37747375e-03, 1.48073407e-02
-2.37717340e-03, 1.48085421e-02
-2.37687305e-03, 1.48097416e-02
-2.37657269e-03, 1.48109449e-02
-2.37627234e-03, 1.48121491e-02
-2.37597199e-03, 1.48133496e-02
-2.37567164e-03, 1.48145491e-02
-2.37537129e-03, 1.48157524e-02
-2.37507094e-03, 1.48169547e-02
-2.37477059e-03, 1.48181552e-02
-2.37447023e-03, 1.48193566e-02
-2.37416988e-03, 1.48205590e-02
-2.37386953e-03, 1.48217613e-02
-2.37356918e-03, 1.48229646e-02
-2.37326883e-03, 1.48241650e-02
-2.37296848e-03, 1.48253664e-02
-2.37266812e-03, 1.48265688e-02
-2.37236777e-03, 1.48277702e-02
-2.37206742e-03, 1.48289716e-02
-2.37176707e-03, 1.48301739e-02
-2.37146672e-03, 1.48313744e-02
-2.37116637e-03, 1.48325777e-02
-2.37086602e-03, 1.48337781e-02
-2.37056566e-03, 1.48349823e-02
-2.37026531e-03, 1.48361837e-02
-2.36996496e-03, 1.48373842e-02
-2.36966461e-03, 1.48385856e-02
-2.36936426e-03, 1.48397880e-02
-2.36906391e-03, 1.48409903e-02
-2.36876355e-03, 1.48421917e-02
-2.36846320e-03, 1.48433940e-02
-2.36816285e-03, 1.48445964e-02
-2.36786250e-03, 1.48457978e-02
-2.36756215e-03, 1.48469983e-02
-2.36726180e-03, 1.48481997e-02
-2.36696145e-03, 1.48494029e-02
-2.36666109e-03, 1.48506043e-02
-2.36636074e-03, 1.48518076e-02
-2.36606039e-03, 1.48530081e-02
-2.36576004e-03, 1.48542095e-02
-2.36545969e-03, 1.48554100e-02
-2.36515934e-03, 1.48566142e-02
-2.36485898e-03, 1.48578156e-02
-2.36455863e-03, 1.48590179e-02
-2.36425828e-03, 1.48602184e-02
-2.36395793e-03, 1.48614207e-02
-2.36365758e-03, 1.48626231e-02
-2.36335723e-03, 1.48638245e-02
-2.36305688e-03, 1.48650268e-02
-2.36275652e-03, 1.48662273e-02
-2.36245617e-03, 1.48674306e-02
-2.36215582e-03, 1.48686320e-02
-2.36185547e-03, 1.48698352e-02
-2.36155512e-03, 1.48710348e-02
-2.36125477e-03, 1.48722390e-02
-2.36095442e-03, 1.48734385e-02
-2.36065406e-03, 1.48746418e-02
-2.36035371e-03, 1.48758413e-02
-2.36005336e-03, 1.48770446e-02
-2.35975301e-03, 1.48782479e-02
-2.35945266e-03, 1.48794493e-02
-2.35915231e-03, 1.48806507e-02
-2.35885195e-03, 1.48818521e-02
-2.35855160e-03, 1.48830544e-02
-2.35825125e-03, 1.48842558e-02
-2.35795090e-03, 1.48854582e-02
-2.35765055e-03, 1.48866596e-02
-2.35735020e-03, 1.48878610e-02
-2.35704985e-03, 1.48890633e-02
-2.35674949e-03, 1.48907481e-02
-2.35644914e-03, 1.48914680e-02
-2.35614879e-03, 1.48926228e-02
-2.35584844e-03, 1.48937758e-02
-2.35554809e-03, 1.48949316e-02
-2.35524774e-03, 1.48960873e-02
-2.35494738e-03, 1.48972403e-02
-2.35464703e-03, 1.48983952e-02
-2.35434668e-03, 1.48995509e-02
-2.35404633e-03, 1.49007048e-02
-2.35374598e-03, 1.49018606e-02
-2.35344563e-03, 1.49030155e-02
-2.35314528e-03, 1.49041703e-02
-2.35284492e-03, 1.49053242e-02
-2.35254457e-03, 1.49064781e-02
-2.35224422e-03, 1.49076348e-02
-2.35194387e-03, 1.49087897e-02
-2.35164352e-03, 1.49099445e-02
-2.35134317e-03, 1.49110984e-02
-2.35104281e-03, 1.49122551e-02
-2.35074246e-03, 1.49134090e-02
-2.35044211e-03, 1.49145629e-02
-2.35014176e-03, 1.49157178e-02
-2.34984141e-03, 1.49168735e-02
-2.34954106e-03, 1.49180274e-02
-2.34924071e-03, 1.49191823e-02
-2.34894035e-03, 1.49203371e-02
-2.34864000e-03, 1.49214920e-02
-2.34833965e-03, 1.49226468e-02
-2.34803930e-03, 1.49238016e-02
-2.34773895e-03, 1.49249574e-02
-2.34743860e-03, 1.49261113e-02
-2.34713824e-03, 1.49272671e-02
-2.34683789e-03, 1.49284210e-02
-2.34653754e-03, 1.49295758e-02
-2.34623719e-03, 1.49307307e-02
-2.34593684e-03, 1.49318865e-02
-2.34563649e-03, 1.49330413e-02
-2.34533614e-03, 1.49341952e-02
-2.34503578e-03, 1.49353519e-02
-2.34473543e-03, 1.49365058e-02
-2.34443508e-03, 1.49376607e-02
-2.34413473e-03, 1.49388146e-02
-2.34383438e-03, 1.49399703e-02
-2.34353403e-03, 1.49411242e-02
-2.34323367e-03, 1.49422791e-02
-2.34293332e-03, 1.49434330e-02
-2.34263297e-03, 1.49445897e-02
-2.34233262e-03, 1.49457436e-02
-2.34203227e-03, 1.49468994e-02
-2.34173192e-03, 1.49480533e-02
-2.34143157e-03, 1.49492091e-02
-2.34113121e-03, 1.49503639e-02
-2.34083086e-03, 1.49515187e-02
-2.34053051e-03, 1.49526745e-02
-2.34023016e-03, 1.49538284e-02
-2.33992981e-03, 1.49549842e-02
-2.33962946e-03, 1.49561381e-02
-2.33932910e-03, 1.49572929e-02
-2.33902875e-03, 1.49583342e-02
-2.33872840e-03, 1.49594238e-02
-2.33842805e-03, 1.49605097e-02
-2.33812770e-03, 1.49615975e-02
-2.33782735e-03, 1.49626853e-02
-2.33752700e-03, 1.49637721e-02
-2.33722664e-03, 1.49648609e-02
-2.33692629e-03, 1.49659486e-02
-2.33662594e-03, 1.49665466e-02
-2.33632559e-03, 1.49683636e-02
-2.33602524e-03, 1.49696209e-02
-2.33572489e-03, 1.49708763e-02
-2.33542453e-03, 1.49721317e-02
-2.33512418e-03, 1.49733871e-02
-2.33482383e-03, 1.49746435e-02
-2.33452348e-03, 1.49758998e-02
-2.33422313e-03, 1.49771562e-02
-2.33392278e-03, 1.49784116e-02
-2.33362243e-03, 1.49796670e-02
-2.33332207e-03, 1.49809234e-02
-2.33302172e-03, 1.49821788e-02
-2.33272137e-03, 1.49834352e-02
-2.33242102e-03, 1.49846906e-02
-2.33212067e-03, 1.49859460e-02
-2.33182032e-03, 1.49872024e-02
-2.33151997e-03, 1.49884587e-02
-2.33121961e-03, 1.49897141e-02
-2.33091926e-03, 1.49909705e-02
-2.33061891e-03, 1.49922259e-02
-2.33031856e-03, 1.49934832e-02
-2.33001821e-03, 1.49947386e-02
-2.32971786e-03, 1.49959931e-02
-2.32941750e-03, 1.49972504e-02
-2.32911715e-03, 1.49985263e-02
-2.32881680e-03, 1.49997408e-02
-2.32851645e-03, 1.50009561e-02
-2.32821610e-03, 1.50021724e-02
-2.32791575e-03, 1.50033869e-02
-2.32761540e-03, 1.50046013e-02
-2.32731504e-03, 1.50058158e-02
-2.32701469e-03, 1.50070321e-02
-2.32671434e-03, 1.50082456e-02
-2.32641399e-03, 1.50094600e-02
-2.32611364e-03, 1.50106754e-02
-2.32581329e-03, 1.50118908e-02
-2.32551293e-03, 1.50131034e-02
-2.32521258e-03, 1.50143187e-02
-2.32491223e-03, 1.50155351e-02
-2.32461188e-03, 1.50167486e-02
-2.32431153e-03, 1.50179649e-02
-2.32401118e-03, 1.50191793e-02
-2.32371083e-03, 1.50203938e-02
-2.32341047e-03, 1.50216082e-02
-2.32311012e-03, 1.50228236e-02
-2.32280977e-03, 1.50240371e-02
-2.32250942e-03, 1.50252515e-02
-2.32220907e-03, 1.50264679e-02
-2.32190872e-03, 1.50276823e-02
-2.32160836e-03, 1.50288977e-02
-2.32130801e-03, 1.50301130e-02
-2.32100766e-03, 1.50313284e-02
-2.32070731e-03, 1.50325419e-02
-2.32040696e-03, 1.50337564e-02
-2.32010661e-03, 1.50349718e-02
-2.31980626e-03, 1.50361862e-02
-2.31950590e-03, 1.50374016e-02
-2.31920555e-03, 1.50386160e-02
-2.31890520e-03, 1.50398295e-02
-2.31860485e-03, 1.50410468e-02
-2.31830450e-03, 1.50422612e-02
-2.31800415e-03, 1.50434766e-02
-2.31770379e-03, 1.50446901e-02
-2.31740344e-03, 1.50459055e-02
-2.31710309e-03, 1.50471199e-02
-2.31680274e-03, 1.50483344e-02
-2.31650239e-03, 1.50495498e-02
-2.31620204e-03, 1.50507642e-02
-2.31590169e-03, 1.50519777e-02
-2.31560133e-03, 1.50531931e-02
-2.31530098e-03, 1.50544094e-02
-2.31500063e-03, 1.50556229e-02
-2.31470028e-03, 1.50568392e-02
-2.31439993e-03, 1.50580546e-02
-2.31409958e-03, 1.50592681e-02
-2.31379922e-03, 1.50604835e-02
-2.31349887e-03, 1.50616998e-02
-2.31319852e-03, 1.50629124e-02
-2.31289817e-03, 1.50641268e-02
-2.31259782e-03, 1.50656393e-02
-2.31229747e-03, 1.50666293e-02
-2.31199712e-03, 1.50677562e-02
-2.31169676e-03, 1.50689483e-02
-2.31139641e-03, 1.50701404e-02
-2.31109606e-03, 1.50713325e-02
-2.31079571e-03, 1.50725245e-02
-2.31049536e-03, 1.50737166e-02
-2.31019501e-03, 1.50749087e-02
-2.30989465e-03, 1.50761008e-02
-2.30959430e-03, 1.50772920e-02
-2.30929395e-03, 1.50784850e-02
-2.30899360e-03, 1.50796771e-02
-2.30869325e-03, 1.50808683e-02
-2.30839290e-03, 1.50820604e-02
-2.30809255e-03, 1.50832543e-02
-2.30779219e-03, 1.50844445e-02
-2.30749184e-03, 1.50856366e-02
-2.30719149e-03, 1.50868278e-02
-2.30689114e-03, 1.50880199e-02
-2.30659079e-03, 1.50892120e-02
-2.30629044e-03, 1.50904041e-02
-2.30599009e-03, 1.50915971e-02
-2.30568973e-03, 1.50927892e-02
-2.30538938e-03, 1.50939794e-02
-2.30508903e-03, 1.50951724e-02
-2.30478868e-03, 1.50963655e-02
-2.30448833e-03, 1.50975557e-02
-2.30418798e-03, 1.50987487e-02
-2.30388762e-03, 1.50999399e-02
-2.30358727e-03, 1.51011329e-02
-2.30328692e-03, 1.51023259e-02
-2.30298657e-03, 1.51035162e-02
-2.30268622e-03, 1.51047092e-02
-2.30238587e-03, 1.51059013e-02
-2.30208552e-03, 1.51070934e-02
-2.30178516e-03, 1.51082836e-02
-2.30148481e-03, 1.51094757e-02
-2.30118446e-03, 1.51106687e-02
-2.30088411e-03, 1.51118608e-02
-2.30058376e-03, 1.51130529e-02
-2.30028341e-03, 1.51142441e-02
-2.29998305e-03, 1.51154371e-02
-2.29968270e-03, 1.51166292e-02
-2.29938235e-03, 1.51178204e-02
-2.29908200e-03, 1.51190134e-02
-2.29878165e-03, 1.51202045e-02
-2.29848130e-03, 1.51213966e-02
-2.29818095e-03, 1.51225887e-02
-2.29788059e-03, 1.51237817e-02
-2.29758024e-03, 1.51249738e-02
-2.29727989e-03, 1.51261669e-02
-2.29697954e-03, 1.51273571e-02
-2.29667919e-03, 1.51285501e-02
-2.29637884e-03, 1.51297403e-02
-2.29607848e-03, 1.51309343e-02
-2.29577813e-03, 1.51321255e-02
-2.29547778e-03, 1.51333176e-02
-2.29517743e-03, 1.51345097e-02
-2.29487708e-03, 1.51357027e-02
-2.29457673e-03, 1.51368938e-02
-2.29427638e-03, 1.51380859e-02
-2.29397602e-03, 1.51392790e-02
-2.29367567e-03, 1.51404701e-02
-2.29337532e-03, 1.51416613e-02
-2.29307497e-03, 1.51428543e-02
-2.29277462e-03, 1.51440455e-02
-2.29247427e-03, 1.51452385e-02
-2.29217391e-03, 1.51464297e-02
-2.29187356e-03, 1.51476227e-02
-2.29157321e-03, 1.51488138e-02
-2.29127286e-03, 1.51500069e-02
-2.29097251e-03, 1.51511980e-02
-2.29067216e-03, 1.51523920e-02
-2.29037181e-03, 1.51535831e-02
-2.29007145e-03, 1.51547752e-02
-2.28977110e-03, 1.51559692e-02
-2.28947075e-03, 1.51571594e-02
-2.28917040e-03, 1.51583515e-02
-2.28887005e-03, 1.51595436e-02
-2.28856970e-03, 1.51607348e-02
-2.28826934e-03, 1.51619269e-02
-2.28796899e-03, 1.51631190e-02
-2.28766864e-03, 1.51643120e-02
-2.28736829e-03, 1.51655041e-02
-2.28706794e-03, 1.51666943e-02
-2.28676759e-03, 1.51678892e-02
-2.28646724e-03, 1.51690813e-02
-2.28616688e-03, 1.51702724e-02
-2.28586653e-03, 1.51714645e-02
-2.28556618e-03, 1.51726557e-02
-2.28526583e-03, 1.51738487e-02
-2.28496548e-03, 1.51750399e-02
-2.28466513e-03, 1.51762310e-02
-2.28436477e-03, 1.51774241e-02
-2.28406442e-03, 1.51786171e-02
-2.28376407e-03, 1.51798083e-02
-2.28346372e-03, 1.51809994e-02
-2.28316337e-03, 1.51821924e-02
-2.28286302e-03, 1.51833845e-02
-2.28256267e-03, 1.51845766e-02
-2.28226231e-03, 1.51857687e-02
-2.28196196e-03, 1.51869617e-02
-2.28166161e-03, 1.51881538e-02
-2.28136126e-03, 1.51893469e-02
-2.28106091e-03, 1.51905390e-02
-2.28076056e-03, 1.51917292e-02
-2.28046020e-03, 1.51929222e-02
-2.28015985e-03, 1.51941124e-02
-2.27985950e-03, 1.51953055e-02
-2.27955915e-03, 1.51964976e-02
-2.27925880e-03, 1.51976915e-02
-2.27895845e-03, 1.51988836e-02
-2.27865810e-03, 1.52000738e-02
-2.27835774e-03, 1.52012669e-02
-2.27805739e-03, 1.52024589e-02
-2.27775704e-03, 1.52036510e-02
-2.27745669e-03, 1.52048441e-02
-2.27715634e-03, 1.52060362e-02
-2.27685599e-03, 1.52072273e-02
-2.27655564e-03, 1.52084194e-02
-2.27625528e-03, 1.52096124e-02
-2.27595493e-03, 1.52108027e-02
-2.27565458e-03, 1.52119957e-02
-2.27535423e-03, 1.52131869e-02
-2.27505388e-03, 1.52143808e-02
-2.27475353e-03, 1.52155720e-02
-2.27445317e-03, 1.52167650e-02
-2.27415282e-03, 1.52179571e-02
-2.27385247e-03, 1.52191473e-02
-2.27355212e-03, 1.52203422e-02
-2.27325177e-03, 1.52215324e-02
-2.27295142e-03, 1.52227255e-02
-2.27265107e-03, 1.52239176e-02
-2.27235071e-03, 1.52251096e-02
-2.27205036e-03, 1.52263008e-02
-2.27175001e-03, 1.52274938e-02
-2.27144966e-03, 1.52286859e-02
-2.27114931e-03, 1.52298780e-02
-2.27084896e-03, 1.52310692e-02
-2.27054860e-03, 1.52322613e-02
-2.27024825e-03, 1.52334552e-02
-2.26994790e-03, 1.52346464e-02
-2.26964755e-03, 1.52358375e-02
-2.26934720e-03, 1.52370315e-02
-2.26904685e-03, 1.52382236e-02
-2.26874650e-03, 1.52394157e-02
-2.26844614e-03, 1.52406069e-02
-2.26814579e-03, 1.52417980e-02
-2.26784544e-03, 1.52429901e-02
-2.26754509e-03, 1.52441831e-02
-2.26724474e-03, 1.52453752e-02
-2.26694439e-03, 1.52465673e-02
-2.26664403e-03, 1.52477613e-02
-2.26634368e-03, 1.52489534e-02
-2.26604333e-03, 1.52501445e-02
-2.26574298e-03, 1.52513385e-02
-2.26544263e-03, 1.52525296e-02
-2.26514228e-03, 1.52537217e-02
-2.26484193e-03, 1.52549129e-02
-2.26454157e-03, 1.52561059e-02
-2.26424122e-03, 1.52572980e-02
-2.26394087e-03, 1.52584892e-02
-2.26364052e-03, 1.52596636e-02
-2.26334017e-03, 1.52608380e-02
-2.26303982e-03, 1.52620124e-02
-2.26273946e-03, 1.52631877e-02
-2.26243911e-03, 1.52643602e-02
-2.26213876e-03, 1.52655346e-02
-2.26183841e-03, 1.52667100e-02
-2.26153806e-03, 1.52678844e-02
-2.26123771e-03, 1.52690569e-02
-2.26093736e-03, 1.52702313e-02
-2.26063700e-03, 1.52714066e-02
-2.26033665e-03, 1.52725801e-02
-2.26003630e-03, 1.52737554e-02
-2.25973595e-03, 1.52749280e-02
-2.25943560e-03, 1.52761023e-02
-2.25913525e-03, 1.52772767e-02
-2.25883489e-03, 1.52784521e-02
-2.25853454e-03, 1.52796255e-02
-2.25823419e-03, 1.52807990e-02
-2.25793384e-03, 1.52819725e-02
-2.25763349e-03, 1.52831478e-02
-2.25733314e-03, 1.52843222e-02
-2.25703279e-03, 1.52854957e-02
-2.25673243e-03, 1.52866701e-02
-2.25643208e-03, 1.52878435e-02
-2.25613173e-03, 1.52890189e-02
-2.25583138e-03, 1.52901933e-02
-2.25553103e-03, 1.52913658e-02
-2.25523068e-03, 1.52925411e-02
-2.25493032e-03, 1.52937165e-02
-2.25462997e-03, 1.52948899e-02
-2.25432962e-03, 1.52960652e-02
-2.25402927e-03, 1.52972359e-02
-2.25372892e-03, 1.52984122e-02
-2.25342857e-03, 1.52995875e-02
-2.25312822e-03, 1.53007610e-02
-2.25282786e-03, 1.53019344e-02
-2.25252751e-03, 1.53031088e-02
-2.25222716e-03, 1.53042823e-02
-2.25192681e-03, 1.53054446e-02
-2.25162646e-03, 1.53065436e-02
-2.25132611e-03, 1.53076453e-02
-2.25102575e-03, 1.53087433e-02
-2.25072540e-03, 1.53098432e-02
-2.25042505e-03, 1.53109422e-02
-2.25012470e-03, 1.53120439e-02
-2.24982435e-03, 1.53131429e-02
-2.24952400e-03, 1.53142428e-02
-2.24922365e-03, 1.53153427e-02
-2.24892329e-03, 1.53164435e-02
-2.24862294e-03, 1.53175406e-02
-2.24832259e-03, 1.53186424e-02
-2.24802224e-03, 1.53197423e-02
-2.24772189e-03, 1.53208412e-02
-2.24742154e-03, 1.53219411e-02
-2.24712119e-03, 1.53230410e-02
-2.24682083e-03, 1.53241409e-02
-2.24652048e-03, 1.53252408e-02
-2.24622013e-03, 1.53263416e-02
-2.24591978e-03, 1.53274406e-02
-2.24561943e-03, 1.53285405e-02
-2.24531908e-03, 1.53296413e-02
-2.24501872e-03, 1.53307403e-02
-2.24471837e-03, 1.53318411e-02
-2.24441802e-03, 1.53329410e-02
-2.24411767e-03, 1.53340399e-02
-2.24381732e-03, 1.53351398e-02
-2.24351697e-03, 1.53362388e-02
-2.24321662e-03, 1.53373415e-02
-2.24291626e-03, 1.53384414e-02
-2.24261591e-03, 1.53395385e-02
-2.24231556e-03, 1.53406383e-02
-2.24201521e-03, 1.53417401e-02
-2.24171486e-03, 1.53428391e-02
-2.24141451e-03, 1.53439399e-02
-2.24111415e-03, 1.53450388e-02
-2.24081380e-03, 1.53461387e-02
-2.24051345e-03, 1.53472396e-02
-2.24021310e-03, 1.53483404e-02
-2.23991275e-03, 1.53494393e-02
-2.23961240e-03, 1.53505392e-02
-2.23931205e-03, 1.53516391e-02
-2.23901169e-03, 1.53527390e-02
-2.23871134e-03, 1.53538389e-02
-2.23841099e-03, 1.53549397e-02
-2.23811064e-03, 1.53560387e-02
-2.23781029e-03, 1.53571386e-02
-2.23750994e-03, 1.53582375e-02
-2.23720958e-03, 1.53593374e-02
-2.23690923e-03, 1.53604392e-02
-2.23660888e-03, 1.53615391e-02
-2.23630853e-03, 1.53626390e-02
-2.23600818e-03, 1.53637379e-02
-2.23570783e-03, 1.53648369e-02
-2.23540748e-03, 1.53659368e-02
-2.23510712e-03, 1.53670385e-02
-2.23480677e-03, 1.53681394e-02
-2.23450642e-03, 1.53692383e-02
-2.23420607e-03, 1.53703382e-02
-2.23390572e-03, 1.53714372e-02
-2.23360537e-03, 1.53725380e-02
-2.23330501e-03, 1.53736388e-02
-2.23300466e-03, 1.53747387e-02
-2.23270431e-03, 1.53758377e-02
-2.23240396e-03, 1.53769376e-02
-2.23210361e-03, 1.53780384e-02
-2.23180326e-03, 1.53791383e-02
-2.23150291e-03, 1.53802391e-02
-2.23120255e-03, 1.53813371e-02
-2.23090220e-03, 1.53824380e-02
-2.23060185e-03, 1.53835379e-02
-2.23030150e-03, 1.53846368e-02
-2.23000115e-03, 1.53857376e-02
-2.22970080e-03, 1.53868385e-02
-2.22940044e-03, 1.53879374e-02
-2.22910009e-03, 1.53890373e-02
-2.22879974e-03, 1.53901391e-02
-2.22849939e-03, 1.53912390e-02
-2.22819904e-03, 1.53923398e-02
-2.22789869e-03, 1.53934378e-02
-2.22759834e-03, 1.53945386e-02
-2.22729798e-03, 1.53956376e-02
-2.22699763e-03, 1.53967384e-02
-2.22669728e-03, 1.53978392e-02
-2.22639693e-03, 1.53989401e-02
-2.22609658e-03, 1.54000381e-02
-2.22579623e-03, 1.54011380e-02
-2.22549587e-03, 1.54022388e-02
-2.22519552e-03, 1.54033387e-02
-2.22489517e-03, 1.54044386e-02
-2.22459482e-03, 1.54055394e-02
-2.22429447e-03, 1.54066402e-02
-2.22399412e-03, 1.54077420e-02
-2.22369377e-03, 1.54088410e-02
-2.22339341e-03, 1.54099418e-02
-2.22309306e-03, 1.54110426e-02
-2.22279271e-03, 1.54121425e-02
-2.22249236e-03, 1.54132443e-02
-2.22219201e-03, 1.54143441e-02
-2.22189166e-03, 1.54154440e-02
-2.22159130e-03, 1.54165439e-02
-2.22129095e-03, 1.54176457e-02
-2.22099060e-03, 1.54187446e-02
-2.22069025e-03, 1.54198455e-02
-2.22038990e-03, 1.54209463e-02
-2.22008955e-03, 1.54220471e-02
-2.21978920e-03, 1.54231479e-02
-2.21948884e-03, 1.54242488e-02
-2.21918849e-03, 1.54253487e-02
-2.21888814e-03, 1.54264495e-02
-2.21858779e-03, 1.54275503e-02
-2.21828744e-03, 1.54286521e-02
-2.21798709e-03, 1.54297519e-02
-2.21768674e-03, 1.54308509e-02
-2.21738638e-03, 1.54319536e-02
-2.21708603e-03, 1.54330544e-02
-2.21678568e-03, 1.54341543e-02
-2.21648533e-03, 1.54352542e-02
-2.21618498e-03, 1.54363560e-02
-2.21588463e-03, 1.54374558e-02
-2.21558427e-03, 1.54385576e-02
-2.21528392e-03, 1.54396575e-02
-2.21498357e-03, 1.54407583e-02
-2.21468322e-03, 1.54418582e-02
-2.21438287e-03, 1.54429590e-02
-2.21408252e-03, 1.54440589e-02
-2.21378217e-03, 1.54451607e-02
