[Name]
Series 1 for Case v9_m5_350_0.009_sec at /LINE:Line horizontal 18

[Data]
X [ m ],Velocity [ m s^-1 ]
-8.99999985e-04, 1.52708776e-02
-8.99699691e-04, 1.52791208e-02
-8.99399398e-04, 1.52873881e-02
-8.99099105e-04, 1.52956787e-02
-8.98798811e-04, 1.53039955e-02
-8.98498518e-04, 1.53123364e-02
-8.98198225e-04, 1.53207015e-02
-8.97897931e-04, 1.53290918e-02
-8.97597638e-04, 1.53375054e-02
-8.97297345e-04, 1.53491460e-02
-8.96997051e-04, 1.53542571e-02
-8.96696758e-04, 1.53621873e-02
-8.96396465e-04, 1.53701408e-02
-8.96096171e-04, 1.53781110e-02
-8.95795878e-04, 1.53861055e-02
-8.95495585e-04, 1.53941186e-02
-8.95195291e-04, 1.54021522e-02
-8.94894998e-04, 1.54102063e-02
-8.94594705e-04, 1.54182808e-02
-8.94294411e-04, 1.54263768e-02
-8.93994118e-04, 1.54344933e-02
-8.93693825e-04, 1.54426303e-02
-8.93393531e-04, 1.54507868e-02
-8.93093238e-04, 1.54589638e-02
-8.92792945e-04, 1.54671632e-02
-8.92492651e-04, 1.54753793e-02
-8.92192358e-04, 1.54836169e-02
-8.91892065e-04, 1.54918740e-02
-8.91591772e-04, 1.55001534e-02
-8.91291478e-04, 1.55084515e-02
-8.90991185e-04, 1.55167710e-02
-8.90690892e-04, 1.55251110e-02
-8.90390598e-04, 1.55334696e-02
-8.90090305e-04, 1.55418450e-02
-8.89790012e-04, 1.55502455e-02
-8.89489718e-04, 1.55586665e-02
-8.89189425e-04, 1.55671043e-02
-8.88889132e-04, 1.55755626e-02
-8.88588838e-04, 1.55840414e-02
-8.88288545e-04, 1.55925378e-02
-8.87988252e-04, 1.56010576e-02
-8.87687958e-04, 1.56095950e-02
-8.87387665e-04, 1.56181529e-02
-8.87087372e-04, 1.56267304e-02
-8.86787078e-04, 1.56353265e-02
-8.86486785e-04, 1.56439450e-02
-8.86186492e-04, 1.56525802e-02
-8.85886198e-04, 1.56612359e-02
-8.85585905e-04, 1.56699121e-02
-8.85285612e-04, 1.56786069e-02
-8.84985318e-04, 1.56873204e-02
-8.84685025e-04, 1.56960543e-02
-8.84384732e-04, 1.57048088e-02
-8.84084438e-04, 1.57135800e-02
-8.83784145e-04, 1.57223716e-02
-8.83483852e-04, 1.57311838e-02
-8.83183558e-04, 1.57400146e-02
-8.82883265e-04, 1.57488640e-02
-8.82582972e-04, 1.57577321e-02
-8.82282679e-04, 1.57666225e-02
-8.81982385e-04, 1.57755278e-02
-8.81682092e-04, 1.57844555e-02
-8.81381799e-04, 1.57933999e-02
-8.81081505e-04, 1.58023648e-02
-8.80781212e-04, 1.58113465e-02
-8.80480919e-04, 1.58203505e-02
-8.80180625e-04, 1.58293713e-02
-8.79880332e-04, 1.58384126e-02
-8.79580039e-04, 1.58474725e-02
-8.79279745e-04, 1.58565510e-02
-8.78979452e-04, 1.58656482e-02
-8.78679159e-04, 1.58747640e-02
-8.78378865e-04, 1.58838965e-02
-8.78078572e-04, 1.58930514e-02
-8.77778279e-04, 1.59022231e-02
-8.77477985e-04, 1.59114152e-02
-8.77177692e-04, 1.59206241e-02
-8.76877399e-04, 1.59298517e-02
-8.76577105e-04, 1.59390979e-02
-8.76276812e-04, 1.59483626e-02
-8.75976519e-04, 1.59576461e-02
-8.75676225e-04, 1.59669481e-02
-8.75375932e-04, 1.59762688e-02
-8.75075639e-04, 1.59856062e-02
-8.74775345e-04, 1.59949642e-02
-8.74475052e-04, 1.60043389e-02
-8.74174759e-04, 1.60137340e-02
-8.73874465e-04, 1.60231460e-02
-8.73574172e-04, 1.60325766e-02
-8.73273879e-04, 1.60420258e-02
-8.72973586e-04, 1.60514917e-02
-8.72673292e-04, 1.60609763e-02
-8.72372999e-04, 1.60704795e-02
-8.72072706e-04, 1.60799995e-02
-8.71772412e-04, 1.60895418e-02
-8.71472119e-04, 1.60990972e-02
-8.71171826e-04, 1.61086712e-02
-8.70871532e-04, 1.61182638e-02
-8.70571239e-04, 1.61278769e-02
-8.70270946e-04, 1.61375050e-02
-8.69970652e-04, 1.61471516e-02
-8.69670359e-04, 1.61568169e-02
-8.69370066e-04, 1.61664989e-02
-8.69069772e-04, 1.61762014e-02
-8.68769479e-04, 1.61859170e-02
-8.68469186e-04, 1.61956530e-02
-8.68168892e-04, 1.62054077e-02
-8.67868599e-04, 1.62151791e-02
-8.67568306e-04, 1.62249655e-02
-8.67268012e-04, 1.62347723e-02
-8.66967719e-04, 1.62445959e-02
-8.66667426e-04, 1.62544362e-02
-8.66367132e-04, 1.62642952e-02
-8.66066839e-04, 1.62741728e-02
-8.65766546e-04, 1.62840672e-02
-8.65466252e-04, 1.62939765e-02
-8.65165959e-04, 1.63039044e-02
-8.64865666e-04, 1.63138490e-02
-8.64565372e-04, 1.63238142e-02
-8.64265079e-04, 1.63337942e-02
-8.63964786e-04, 1.63437910e-02
-8.63664492e-04, 1.63538065e-02
-8.63364199e-04, 1.63638350e-02
-8.63063906e-04, 1.63738858e-02
-8.62763613e-04, 1.63839534e-02
-8.62463319e-04, 1.63940359e-02
-8.62163026e-04, 1.64041333e-02
-8.61862733e-04, 1.64142512e-02
-8.61562439e-04, 1.64243840e-02
-8.61262146e-04, 1.64345372e-02
-8.60961853e-04, 1.64447017e-02
-8.60661559e-04, 1.64548904e-02
-8.60361266e-04, 1.64650902e-02
-8.60060973e-04, 1.64753105e-02
-8.59760679e-04, 1.64855439e-02
-8.59460386e-04, 1.64971389e-02
-8.59160093e-04, 1.65094994e-02
-8.58859799e-04, 1.65218953e-02
-8.58559506e-04, 1.65343303e-02
-8.58259213e-04, 1.65467970e-02
-8.57958919e-04, 1.65593047e-02
-8.57658626e-04, 1.65718440e-02
-8.57358333e-04, 1.65844243e-02
-8.57058039e-04, 1.65970363e-02
-8.56757746e-04, 1.66096855e-02
-8.56457453e-04, 1.66223682e-02
-8.56157159e-04, 1.66350920e-02
-8.55856866e-04, 1.66478455e-02
-8.55556573e-04, 1.66606363e-02
-8.55256279e-04, 1.66734625e-02
-8.54955986e-04, 1.66863222e-02
-8.54655693e-04, 1.66992210e-02
-8.54355399e-04, 1.67121552e-02
-8.54055106e-04, 1.67251192e-02
-8.53754813e-04, 1.67381205e-02
-8.53454520e-04, 1.67511571e-02
-8.53154226e-04, 1.67642310e-02
-8.52853933e-04, 1.67773347e-02
-8.52553640e-04, 1.67904757e-02
-8.52253346e-04, 1.68036502e-02
-8.51953053e-04, 1.68168601e-02
-8.51652760e-04, 1.68301053e-02
-8.51352466e-04, 1.68433823e-02
-8.51052173e-04, 1.68566927e-02
-8.50751880e-04, 1.68700404e-02
-8.50451586e-04, 1.68834198e-02
-8.50151293e-04, 1.68968346e-02
-8.49851000e-04, 1.69102829e-02
-8.49550706e-04, 1.69237666e-02
-8.49250413e-04, 1.69372782e-02
-8.48950120e-04, 1.69508308e-02
-8.48649826e-04, 1.69644114e-02
-8.48349533e-04, 1.69780292e-02
-8.48049240e-04, 1.69916786e-02
-8.47748946e-04, 1.70053616e-02
-8.47448653e-04, 1.70190763e-02
-8.47148360e-04, 1.70328282e-02
-8.46848066e-04, 1.70466080e-02
-8.46547773e-04, 1.70604251e-02
-8.46247480e-04, 1.70742739e-02
-8.45947186e-04, 1.70881543e-02
-8.45646893e-04, 1.71020664e-02
-8.45346600e-04, 1.71160139e-02
-8.45046306e-04, 1.71299931e-02
-8.44746013e-04, 1.71440057e-02
-8.44445720e-04, 1.71580501e-02
-8.44145427e-04, 1.71721261e-02
-8.43845133e-04, 1.71862356e-02
-8.43544840e-04, 1.72003750e-02
-8.43244547e-04, 1.72145478e-02
-8.42944253e-04, 1.72287505e-02
-8.42643960e-04, 1.72429886e-02
-8.42343667e-04, 1.72572564e-02
-8.42043373e-04, 1.72715597e-02
-8.41743080e-04, 1.72858890e-02
-8.41442787e-04, 1.73002556e-02
-8.41142493e-04, 1.73146483e-02
-8.40842200e-04, 1.73290763e-02
-8.40541907e-04, 1.73435342e-02
-8.40241613e-04, 1.73580255e-02
-8.39941320e-04, 1.73725449e-02
-8.39641027e-04, 1.73870958e-02
-8.39340733e-04, 1.74016804e-02
-8.39040440e-04, 1.74162928e-02
-8.38740147e-04, 1.74309388e-02
-8.38439853e-04, 1.74456164e-02
-8.38139560e-04, 1.74603220e-02
-8.37839267e-04, 1.74750593e-02
-8.37538973e-04, 1.74898244e-02
-8.37238680e-04, 1.75046232e-02
-8.36938387e-04, 1.75194535e-02
-8.36638093e-04, 1.75343119e-02
-8.36337800e-04, 1.75492000e-02
-8.36037507e-04, 1.75641216e-02
-8.35737213e-04, 1.75790712e-02
-8.35436920e-04, 1.75940506e-02
-8.35136627e-04, 1.76090598e-02
-8.34836334e-04, 1.76241007e-02
-8.34536040e-04, 1.76391713e-02
-8.34235747e-04, 1.76542681e-02
-8.33935454e-04, 1.76694002e-02
-8.33635160e-04, 1.76845584e-02
-8.33334867e-04, 1.76997464e-02
-8.33034574e-04, 1.77149624e-02
-8.32734280e-04, 1.77302100e-02
-8.32433987e-04, 1.77454874e-02
-8.32133694e-04, 1.77607927e-02
-8.31833400e-04, 1.77761279e-02
-8.31533107e-04, 1.77914929e-02
-8.31232814e-04, 1.78068839e-02
-8.30932520e-04, 1.78223047e-02
-8.30632227e-04, 1.78377554e-02
-8.30331934e-04, 1.78532340e-02
-8.30031640e-04, 1.78687442e-02
-8.29731347e-04, 1.78842805e-02
-8.29431054e-04, 1.78998448e-02
-8.29130760e-04, 1.79154426e-02
-8.28830467e-04, 1.79289356e-02
-8.28530174e-04, 1.79476105e-02
-8.28229880e-04, 1.79639626e-02
-8.27929587e-04, 1.79803502e-02
-8.27629294e-04, 1.79967694e-02
-8.27329000e-04, 1.80132277e-02
-8.27028707e-04, 1.80297233e-02
-8.26728414e-04, 1.80462543e-02
-8.26428120e-04, 1.80628207e-02
-8.26127827e-04, 1.80794243e-02
-8.25827534e-04, 1.80960633e-02
-8.25527241e-04, 1.81127377e-02
-8.25226947e-04, 1.81294475e-02
-8.24926654e-04, 1.81461945e-02
-8.24626361e-04, 1.81629751e-02
-8.24326067e-04, 1.81797892e-02
-8.24025774e-04, 1.81966405e-02
-8.23725481e-04, 1.82135273e-02
-8.23425187e-04, 1.82304494e-02
-8.23124894e-04, 1.82474051e-02
-8.22824601e-04, 1.82643980e-02
-8.22524307e-04, 1.82814226e-02
-8.22224014e-04, 1.82984825e-02
-8.21923721e-04, 1.83155760e-02
-8.21623427e-04, 1.83327068e-02
-8.21323134e-04, 1.83498673e-02
-8.21022841e-04, 1.83670651e-02
-8.20722547e-04, 1.83842964e-02
-8.20422254e-04, 1.84015632e-02
-8.20121961e-04, 1.84188634e-02
-8.19821667e-04, 1.84361953e-02
-8.19521374e-04, 1.84535626e-02
-8.19221081e-04, 1.84709653e-02
-8.18920787e-04, 1.84883997e-02
-8.18620494e-04, 1.85058676e-02
-8.18320201e-04, 1.85233671e-02
-8.18019907e-04, 1.85409021e-02
-8.17719614e-04, 1.85584705e-02
-8.17419321e-04, 1.85770839e-02
-8.17119027e-04, 1.85959637e-02
-8.16818734e-04, 1.86148789e-02
-8.16518441e-04, 1.86338313e-02
-8.16218148e-04, 1.86528210e-02
-8.15917854e-04, 1.86718442e-02
-8.15617561e-04, 1.86909065e-02
-8.15317268e-04, 1.87100023e-02
-8.15016974e-04, 1.87291354e-02
-8.14716681e-04, 1.87483039e-02
-8.14416388e-04, 1.87675077e-02
-8.14116094e-04, 1.87867470e-02
-8.13815801e-04, 1.88060235e-02
-8.13515508e-04, 1.88253336e-02
-8.13215214e-04, 1.88446790e-02
-8.12914921e-04, 1.88640598e-02
-8.12614628e-04, 1.88834760e-02
-8.12314334e-04, 1.89029258e-02
-8.12014041e-04, 1.89224128e-02
-8.11713748e-04, 1.89419314e-02
-8.11413454e-04, 1.89614873e-02
-8.11113161e-04, 1.89810749e-02
-8.10812868e-04, 1.90006997e-02
-8.10512574e-04, 1.90203581e-02
-8.10212281e-04, 1.90400500e-02
-8.09911988e-04, 1.90597754e-02
-8.09611694e-04, 1.90795343e-02
-8.09311401e-04, 1.90993305e-02
-8.09011108e-04, 1.91191584e-02
-8.08710814e-04, 1.91390198e-02
-8.08410521e-04, 1.91589128e-02
-8.08110228e-04, 1.91788431e-02
-8.07809934e-04, 1.91988051e-02
-8.07509641e-04, 1.92187987e-02
-8.07209348e-04, 1.92388259e-02
-8.06909055e-04, 1.92588884e-02
-8.06608761e-04, 1.92789827e-02
-8.06308468e-04, 1.92991085e-02
-8.06008175e-04, 1.93192661e-02
-8.05707881e-04, 1.93394590e-02
-8.05407588e-04, 1.93596836e-02
-8.05107295e-04, 1.93799417e-02
-8.04807001e-04, 1.94002297e-02
-8.04506708e-04, 1.94205511e-02
-8.04206415e-04, 1.94409061e-02
-8.03906121e-04, 1.94612890e-02
-8.03605828e-04, 1.94817074e-02
-8.03305535e-04, 1.95021555e-02
-8.03005241e-04, 1.95226371e-02
-8.02704948e-04, 1.95431486e-02
-8.02404655e-04, 1.95636936e-02
-8.02104361e-04, 1.95842702e-02
-8.01804068e-04, 1.96048766e-02
-8.01503775e-04, 1.96255129e-02
-8.01203481e-04, 1.96461827e-02
-8.00903188e-04, 1.96668804e-02
-8.00602895e-04, 1.96876116e-02
-8.00302601e-04, 1.97083745e-02
-8.00002308e-04, 1.97291654e-02
-7.99702015e-04, 1.97499916e-02
-7.99401721e-04, 1.97708420e-02
-7.99101428e-04, 1.97917260e-02
-7.98801135e-04, 1.98208354e-02
-7.98500841e-04, 1.98507588e-02
-7.98200548e-04, 1.98807567e-02
-7.97900255e-04, 1.99108236e-02
-7.97599962e-04, 1.99409612e-02
-7.97299668e-04, 1.99711733e-02
-7.96999375e-04, 2.00014524e-02
-7.96699082e-04, 2.00318061e-02
-7.96398788e-04, 2.00622268e-02
-7.96098495e-04, 2.00927202e-02
-7.95798202e-04, 2.01232806e-02
-7.95497908e-04, 2.01539118e-02
-7.95197615e-04, 2.01846119e-02
-7.94897322e-04, 2.02153809e-02
-7.94597028e-04, 2.02462189e-02
-7.94296735e-04, 2.02771239e-02
-7.93996442e-04, 2.03080960e-02
-7.93696148e-04, 2.03391369e-02
-7.93395855e-04, 2.03702450e-02
-7.93095562e-04, 2.04014163e-02
-7.92795268e-04, 2.04326604e-02
-7.92494975e-04, 2.04639658e-02
-7.92194682e-04, 2.04953402e-02
-7.91894388e-04, 2.05267780e-02
-7.91594095e-04, 2.05582809e-02
-7.91293802e-04, 2.05898508e-02
-7.90993508e-04, 2.06214841e-02
-7.90693215e-04, 2.06531826e-02
-7.90392922e-04, 2.06849445e-02
-7.90092628e-04, 2.07167715e-02
-7.89792335e-04, 2.07486600e-02
-7.89492042e-04, 2.07806136e-02
-7.89191748e-04, 2.08126288e-02
-7.88891455e-04, 2.08447073e-02
-7.88591162e-04, 2.08768472e-02
-7.88290869e-04, 2.09090505e-02
-7.87990575e-04, 2.09413152e-02
-7.87690282e-04, 2.09736414e-02
-7.87389989e-04, 2.10060291e-02
-7.87089695e-04, 2.10384764e-02
-7.86789402e-04, 2.10709851e-02
-7.86489109e-04, 2.11035553e-02
-7.86188815e-04, 2.11361852e-02
-7.85888522e-04, 2.11688727e-02
-7.85588229e-04, 2.12016199e-02
-7.85287935e-04, 2.12344304e-02
-7.84987642e-04, 2.12672967e-02
-7.84687349e-04, 2.13002227e-02
-7.84387055e-04, 2.13332064e-02
-7.84086762e-04, 2.13662498e-02
-7.83786469e-04, 2.13993508e-02
-7.83486175e-04, 2.14325059e-02
-7.83185882e-04, 2.14657243e-02
-7.82885589e-04, 2.14989949e-02
-7.82585295e-04, 2.15323251e-02
-7.82285002e-04, 2.15657074e-02
-7.81984709e-04, 2.15991531e-02
-7.81684415e-04, 2.16326527e-02
-7.81384122e-04, 2.16662046e-02
-7.81083829e-04, 2.16998141e-02
-7.80783535e-04, 2.17334796e-02
-7.80483242e-04, 2.17671990e-02
-7.80182949e-04, 2.18009744e-02
-7.79882655e-04, 2.18348019e-02
-7.79582362e-04, 2.18686871e-02
-7.79282069e-04, 2.19026245e-02
-7.78981776e-04, 2.19366141e-02
-7.78681482e-04, 2.19706576e-02
-7.78381189e-04, 2.20047571e-02
-7.78080896e-04, 2.20389087e-02
-7.77780602e-04, 2.20731124e-02
-7.77480309e-04, 2.21073683e-02
-7.77180016e-04, 2.21416783e-02
-7.76879722e-04, 2.21760366e-02
-7.76579429e-04, 2.22104490e-02
-7.76279136e-04, 2.22449135e-02
-7.75978842e-04, 2.22794302e-02
-7.75678549e-04, 2.23139953e-02
-7.75378256e-04, 2.23486107e-02
-7.75077962e-04, 2.23832801e-02
-7.74777669e-04, 2.24179961e-02
-7.74477376e-04, 2.24527642e-02
-7.74177082e-04, 2.24875864e-02
-7.73876789e-04, 2.25224514e-02
-7.73576496e-04, 2.25573685e-02
-7.73276202e-04, 2.25923359e-02
-7.72975909e-04, 2.26273499e-02
-7.72675616e-04, 2.26624161e-02
-7.72375322e-04, 2.26975270e-02
-7.72075029e-04, 2.27326881e-02
-7.71774736e-04, 2.27678977e-02
-7.71474442e-04, 2.28031557e-02
-7.71174149e-04, 2.28384584e-02
-7.70873856e-04, 2.28738114e-02
-7.70573562e-04, 2.29092091e-02
-7.70273269e-04, 2.29446571e-02
-7.69972976e-04, 2.29801498e-02
-7.69672683e-04, 2.30156891e-02
-7.69372389e-04, 2.30512768e-02
-7.69072096e-04, 2.30869073e-02
-7.68771803e-04, 2.31225863e-02
-7.68471509e-04, 2.31583100e-02
-7.68171216e-04, 2.31940765e-02
-7.67870923e-04, 2.32298914e-02
-7.67570629e-04, 2.32657511e-02
-7.67270336e-04, 2.33016554e-02
-7.66970043e-04, 2.33376063e-02
-7.66669749e-04, 2.33735982e-02
-7.66369456e-04, 2.34096367e-02
-7.66069163e-04, 2.34457161e-02
-7.65768869e-04, 2.34818440e-02
-7.65468576e-04, 2.35180110e-02
-7.65168283e-04, 2.35542245e-02
-7.64867989e-04, 2.35904809e-02
-7.64567696e-04, 2.36267783e-02
-7.64267403e-04, 2.36631203e-02
-7.63967109e-04, 2.36995034e-02
-7.63666816e-04, 2.37359293e-02
-7.63366523e-04, 2.37724017e-02
-7.63066229e-04, 2.38089096e-02
-7.62765936e-04, 2.38454640e-02
-7.62465643e-04, 2.38820575e-02
-7.62165349e-04, 2.39186939e-02
-7.61865056e-04, 2.39553712e-02
-7.61564763e-04, 2.39920896e-02
-7.61264469e-04, 2.40288489e-02
-7.60964176e-04, 2.40656473e-02
-7.60663883e-04, 2.41024885e-02
-7.60363590e-04, 2.41393689e-02
-7.60063296e-04, 2.41762884e-02
-7.59763003e-04, 2.42132489e-02
-7.59462710e-04, 2.42502503e-02
-7.59162416e-04, 2.42872927e-02
-7.58862123e-04, 2.43243705e-02
-7.58561830e-04, 2.43614912e-02
-7.58261536e-04, 2.43986491e-02
-7.57961243e-04, 2.44358443e-02
-7.57660950e-04, 2.44730804e-02
-7.57360656e-04, 2.45103557e-02
-7.57060363e-04, 2.45476663e-02
-7.56760070e-04, 2.45850179e-02
-7.56459776e-04, 2.46224068e-02
-7.56159483e-04, 2.46598329e-02
-7.55859190e-04, 2.46972963e-02
-7.55558896e-04, 2.47347988e-02
-7.55258603e-04, 2.47723367e-02
-7.54958310e-04, 2.48099137e-02
-7.54658016e-04, 2.48475261e-02
-7.54357723e-04, 2.48851795e-02
-7.54057430e-04, 2.49228626e-02
-7.53757136e-04, 2.49605887e-02
-7.53456843e-04, 2.49983445e-02
-7.53156550e-04, 2.50361413e-02
-7.52856256e-04, 2.50739716e-02
-7.52555963e-04, 2.51118429e-02
-7.52255670e-04, 2.51497421e-02
-7.51955376e-04, 2.51876824e-02
-7.51655083e-04, 2.52254959e-02
-7.51354790e-04, 2.52633169e-02
-7.51054497e-04, 2.53011733e-02
-7.50754203e-04, 2.53390670e-02
-7.50453910e-04, 2.53769904e-02
-7.50153617e-04, 2.54167430e-02
-7.49853323e-04, 2.54569110e-02
-7.49553030e-04, 2.54994649e-02
-7.49252737e-04, 2.55420636e-02
-7.48952443e-04, 2.55847145e-02
-7.48652150e-04, 2.56274045e-02
-7.48351857e-04, 2.56701428e-02
-7.48051563e-04, 2.57129278e-02
-7.47751270e-04, 2.57557537e-02
-7.47450977e-04, 2.57986262e-02
-7.47150683e-04, 2.58415435e-02
-7.46850390e-04, 2.58845035e-02
-7.46550097e-04, 2.59275082e-02
-7.46249803e-04, 2.59705558e-02
-7.45949510e-04, 2.60136481e-02
-7.45649217e-04, 2.60567870e-02
-7.45348923e-04, 2.60999650e-02
-7.45048630e-04, 2.61431858e-02
-7.44748337e-04, 2.61864513e-02
-7.44448043e-04, 2.62400173e-02
-7.44147750e-04, 2.62763705e-02
-7.43847457e-04, 2.63269786e-02
-7.43547163e-04, 2.63776463e-02
-7.43246870e-04, 2.64283828e-02
-7.42946577e-04, 2.64791846e-02
-7.42646283e-04, 2.65300516e-02
-7.42345990e-04, 2.65809819e-02
-7.42045697e-04, 2.66319774e-02
-7.41745404e-04, 2.66830362e-02
-7.41445110e-04, 2.67341621e-02
-7.41144817e-04, 2.67853513e-02
-7.40844524e-04, 2.68366002e-02
-7.40544230e-04, 2.68879142e-02
-7.40243937e-04, 2.69392915e-02
-7.39943644e-04, 2.69907285e-02
-7.39643350e-04, 2.70422269e-02
-7.39343057e-04, 2.70937886e-02
-7.39042764e-04, 2.71454100e-02
-7.38742470e-04, 2.71970946e-02
-7.38442177e-04, 2.72488371e-02
-7.38141884e-04, 2.73006409e-02
-7.37841590e-04, 2.73525007e-02
-7.37541297e-04, 2.74044257e-02
-7.37241004e-04, 2.74564046e-02
-7.36940710e-04, 2.75054816e-02
-7.36640417e-04, 2.75502447e-02
-7.36340124e-04, 2.76153423e-02
-7.36039830e-04, 2.76686586e-02
-7.35739537e-04, 2.77220365e-02
-7.35439244e-04, 2.77754720e-02
-7.35138950e-04, 2.78289691e-02
-7.34838657e-04, 2.78825220e-02
-7.34538364e-04, 2.79361382e-02
-7.34238070e-04, 2.79898085e-02
-7.33937777e-04, 2.80435402e-02
-7.33637484e-04, 2.80973222e-02
-7.33337190e-04, 2.81511676e-02
-7.33036897e-04, 2.82050669e-02
-7.32736604e-04, 2.82590240e-02
-7.32436310e-04, 2.83130389e-02
-7.32136017e-04, 2.83671077e-02
-7.31835724e-04, 2.84212343e-02
-7.31535431e-04, 2.84754150e-02
-7.31235137e-04, 2.85296496e-02
-7.30934844e-04, 2.85839383e-02
-7.30634551e-04, 2.86382847e-02
-7.30334257e-04, 2.86926813e-02
-7.30033964e-04, 2.87471320e-02
-7.29733671e-04, 2.88016386e-02
-7.29433377e-04, 2.88561974e-02
-7.29133084e-04, 2.89108101e-02
-7.28832791e-04, 2.89654732e-02
-7.28532497e-04, 2.90201884e-02
-7.28232204e-04, 2.90749576e-02
-7.27931911e-04, 2.91297752e-02
-7.27631617e-04, 2.91846469e-02
-7.27331324e-04, 2.92395651e-02
-7.27031031e-04, 2.92945411e-02
-7.26730737e-04, 2.93495618e-02
-7.26430444e-04, 2.94046365e-02
-7.26130151e-04, 2.94597615e-02
-7.25829857e-04, 2.95149311e-02
-7.25529564e-04, 2.95701567e-02
-7.25229271e-04, 2.96254270e-02
-7.24928977e-04, 2.96807438e-02
-7.24628684e-04, 2.97361147e-02
-7.24328391e-04, 2.97915321e-02
-7.24028097e-04, 2.98469942e-02
-7.23727804e-04, 2.99025085e-02
-7.23427511e-04, 2.99580675e-02
-7.23127217e-04, 3.00136749e-02
-7.22826924e-04, 3.00693307e-02
-7.22526631e-04, 3.01250294e-02
-7.22226338e-04, 3.01807784e-02
-7.21926044e-04, 3.02365702e-02
-7.21625751e-04, 3.02924085e-02
-7.21325458e-04, 3.03482953e-02
-7.21025164e-04, 3.04042250e-02
-7.20724871e-04, 3.04601993e-02
-7.20424578e-04, 3.05162184e-02
-7.20124284e-04, 3.05722840e-02
-7.19823991e-04, 3.06283943e-02
-7.19523698e-04, 3.06845475e-02
-7.19223404e-04, 3.07407435e-02
-7.18923111e-04, 3.07969879e-02
-7.18622818e-04, 3.08532696e-02
-7.18322524e-04, 3.09095979e-02
-7.18022231e-04, 3.09659690e-02
-7.17721938e-04, 3.10223792e-02
-7.17421644e-04, 3.10788359e-02
-7.17121351e-04, 3.11353374e-02
-7.16821058e-04, 3.11918743e-02
-7.16520764e-04, 3.12484559e-02
-7.16220471e-04, 3.13050784e-02
-7.15920178e-04, 3.13617475e-02
-7.15619884e-04, 3.14184502e-02
-7.15319591e-04, 3.14751938e-02
-7.15019298e-04, 3.15319821e-02
-7.14719004e-04, 3.15888114e-02
-7.14418711e-04, 3.16456817e-02
-7.14118418e-04, 3.17025892e-02
-7.13818124e-04, 3.17595378e-02
