[Name]
Series 1 for Case v9_m5_350_0.009_sec at /LINE:Line horizontal 15

[Data]
X [ m ],Velocity [ m s^-1 ]
-1.79999997e-03, 5.19902911e-03
-1.79969962e-03, 5.20107150e-03
-1.79939927e-03, 5.20311389e-03
-1.79909891e-03, 5.20515628e-03
-1.79879856e-03, 5.20719914e-03
-1.79849821e-03, 5.20924153e-03
-1.79819786e-03, 5.21128485e-03
-1.79789751e-03, 5.21332817e-03
-1.79759716e-03, 5.21537056e-03
-1.79729681e-03, 5.21741295e-03
-1.79699645e-03, 5.21945581e-03
-1.79669610e-03, 5.22149820e-03
-1.79639575e-03, 5.22354152e-03
-1.79609540e-03, 5.22558391e-03
-1.79579505e-03, 5.22762630e-03
-1.79549470e-03, 5.22966962e-03
-1.79519434e-03, 5.23171294e-03
-1.79489399e-03, 5.23375580e-03
-1.79459364e-03, 5.23566827e-03
-1.79429329e-03, 5.23797516e-03
-1.79399294e-03, 5.24013443e-03
-1.79369259e-03, 5.24229370e-03
-1.79339224e-03, 5.24445297e-03
-1.79309188e-03, 5.24661271e-03
-1.79279153e-03, 5.24877198e-03
-1.79249118e-03, 5.25093125e-03
-1.79219083e-03, 5.25309145e-03
-1.79189048e-03, 5.25524933e-03
-1.79159013e-03, 5.25740953e-03
-1.79128977e-03, 5.25956880e-03
-1.79098942e-03, 5.26172854e-03
-1.79068907e-03, 5.26388781e-03
-1.79038872e-03, 5.26604708e-03
-1.79008837e-03, 5.26820635e-03
-1.78978802e-03, 5.27036563e-03
-1.78948767e-03, 5.27252536e-03
-1.78918731e-03, 5.27468510e-03
-1.78888696e-03, 5.27684391e-03
-1.78858661e-03, 5.27900411e-03
-1.78828626e-03, 5.28116385e-03
-1.78798591e-03, 5.28332219e-03
-1.78768556e-03, 5.28548146e-03
-1.78738520e-03, 5.28764213e-03
-1.78708485e-03, 5.28980093e-03
-1.78678450e-03, 5.29196020e-03
-1.78648415e-03, 5.29411994e-03
-1.78618380e-03, 5.29627968e-03
-1.78588345e-03, 5.29843895e-03
-1.78558310e-03, 5.30059868e-03
-1.78528274e-03, 5.30275796e-03
-1.78498239e-03, 5.30491676e-03
-1.78468204e-03, 5.30707743e-03
-1.78438169e-03, 5.30923670e-03
-1.78408134e-03, 5.31139644e-03
-1.78378099e-03, 5.31355571e-03
-1.78348063e-03, 5.31571498e-03
-1.78318028e-03, 5.31787518e-03
-1.78287993e-03, 5.32003399e-03
-1.78257958e-03, 5.32219419e-03
-1.78227923e-03, 5.32435346e-03
-1.78197888e-03, 5.32651274e-03
-1.78167853e-03, 5.32867294e-03
-1.78137817e-03, 5.33083221e-03
-1.78107782e-03, 5.33299148e-03
-1.78077747e-03, 5.33515168e-03
-1.78047712e-03, 5.33731095e-03
-1.78017677e-03, 5.33934822e-03
-1.77987642e-03, 5.34138642e-03
-1.77957607e-03, 5.34342416e-03
-1.77927571e-03, 5.34546236e-03
-1.77897536e-03, 5.34750056e-03
-1.77867501e-03, 5.34953782e-03
-1.77837466e-03, 5.35157602e-03
-1.77807431e-03, 5.35361422e-03
-1.77777396e-03, 5.35565242e-03
-1.77747360e-03, 5.35769016e-03
-1.77717325e-03, 5.35972789e-03
-1.77687290e-03, 5.36176562e-03
-1.77657255e-03, 5.36380382e-03
-1.77627220e-03, 5.36584249e-03
-1.77597185e-03, 5.36787976e-03
-1.77567150e-03, 5.36991749e-03
-1.77537114e-03, 5.37195569e-03
-1.77507079e-03, 5.37399389e-03
-1.77477044e-03, 5.37603209e-03
-1.77447009e-03, 5.37806982e-03
-1.77416974e-03, 5.38010802e-03
-1.77386939e-03, 5.38214575e-03
-1.77356903e-03, 5.38418395e-03
-1.77326868e-03, 5.38622215e-03
-1.77296833e-03, 5.38825989e-03
-1.77266798e-03, 5.39029855e-03
-1.77236763e-03, 5.39233675e-03
-1.77206728e-03, 5.39437449e-03
-1.77176693e-03, 5.39641222e-03
-1.77146657e-03, 5.39845088e-03
-1.77116622e-03, 5.40048862e-03
-1.77086587e-03, 5.40252635e-03
-1.77056552e-03, 5.40456502e-03
-1.77026517e-03, 5.40660322e-03
-1.76996482e-03, 5.40864142e-03
-1.76966446e-03, 5.41067915e-03
-1.76936411e-03, 5.41271782e-03
-1.76906376e-03, 5.41475555e-03
-1.76876341e-03, 5.41679421e-03
-1.76846306e-03, 5.41883241e-03
-1.76816271e-03, 5.42087015e-03
-1.76786236e-03, 5.42290881e-03
-1.76756200e-03, 5.42494701e-03
-1.76726165e-03, 5.42698521e-03
-1.76696130e-03, 5.42902295e-03
-1.76666095e-03, 5.43106161e-03
-1.76636060e-03, 5.43309981e-03
-1.76606025e-03, 5.43513754e-03
-1.76575989e-03, 5.43717621e-03
-1.76545954e-03, 5.43921441e-03
-1.76515919e-03, 5.44125261e-03
-1.76485884e-03, 5.44329127e-03
-1.76455849e-03, 5.44532901e-03
-1.76425814e-03, 5.44736767e-03
-1.76395779e-03, 5.44940587e-03
-1.76365743e-03, 5.45144454e-03
-1.76335708e-03, 5.45348274e-03
-1.76305673e-03, 5.45552140e-03
-1.76275638e-03, 5.45755960e-03
-1.76245603e-03, 5.45959780e-03
-1.76215568e-03, 5.46163600e-03
-1.76185532e-03, 5.46367466e-03
-1.76155497e-03, 5.46571240e-03
-1.76125462e-03, 5.46775060e-03
-1.76095427e-03, 5.46978926e-03
-1.76065392e-03, 5.47182793e-03
-1.76035357e-03, 5.47386613e-03
-1.76005322e-03, 5.47590479e-03
-1.75975286e-03, 5.47794299e-03
-1.75945251e-03, 5.47998119e-03
-1.75915216e-03, 5.48202032e-03
-1.75885181e-03, 5.48405852e-03
-1.75855146e-03, 5.48609719e-03
-1.75825111e-03, 5.48813539e-03
-1.75795075e-03, 5.49017359e-03
-1.75765040e-03, 5.49221225e-03
-1.75735005e-03, 5.49425045e-03
-1.75704970e-03, 5.49628912e-03
-1.75674935e-03, 5.49832778e-03
-1.75644900e-03, 5.50036598e-03
-1.75614865e-03, 5.50240465e-03
-1.75584829e-03, 5.50444331e-03
-1.75554794e-03, 5.50648198e-03
-1.75524759e-03, 5.50852064e-03
-1.75494724e-03, 5.51055884e-03
-1.75464689e-03, 5.51259751e-03
-1.75434654e-03, 5.51463570e-03
-1.75404618e-03, 5.51667530e-03
-1.75374583e-03, 5.51871257e-03
-1.75344548e-03, 5.52075170e-03
-1.75314513e-03, 5.52279036e-03
-1.75284478e-03, 5.52482903e-03
-1.75254443e-03, 5.52686723e-03
-1.75224408e-03, 5.52890683e-03
-1.75194372e-03, 5.53094456e-03
-1.75164337e-03, 5.53298322e-03
-1.75134302e-03, 5.53502142e-03
-1.75104267e-03, 5.53706056e-03
-1.75074232e-03, 5.53909922e-03
-1.75044197e-03, 5.54113742e-03
-1.75014162e-03, 5.54317608e-03
-1.74984126e-03, 5.54521475e-03
-1.74954091e-03, 5.54725341e-03
-1.74924056e-03, 5.54929255e-03
-1.74894021e-03, 5.55133075e-03
-1.74863986e-03, 5.55337034e-03
-1.74833951e-03, 5.55540808e-03
-1.74803915e-03, 5.55744721e-03
-1.74773880e-03, 5.55948541e-03
-1.74743845e-03, 5.56152500e-03
-1.74713810e-03, 5.56356367e-03
-1.74683775e-03, 5.56560187e-03
-1.74653740e-03, 5.56764100e-03
-1.74623705e-03, 5.56967966e-03
-1.74593669e-03, 5.57171786e-03
-1.74563634e-03, 5.57375746e-03
-1.74533599e-03, 5.57579612e-03
-1.74503564e-03, 5.57783432e-03
-1.74473529e-03, 5.57987345e-03
-1.74443494e-03, 5.58191258e-03
-1.74413458e-03, 5.58395078e-03
-1.74383423e-03, 5.58598991e-03
-1.74353388e-03, 5.58802905e-03
-1.74323353e-03, 5.59006771e-03
-1.74293318e-03, 5.59210591e-03
-1.74263283e-03, 5.59414504e-03
-1.74233248e-03, 5.59618371e-03
-1.74203212e-03, 5.59822330e-03
-1.74173177e-03, 5.60026150e-03
-1.74143142e-03, 5.60247619e-03
-1.74113107e-03, 5.60473325e-03
-1.74083072e-03, 5.60699077e-03
-1.74053037e-03, 5.60924783e-03
-1.74023001e-03, 5.61150583e-03
-1.73992966e-03, 5.61376289e-03
-1.73962931e-03, 5.61602041e-03
-1.73932896e-03, 5.61827747e-03
-1.73902861e-03, 5.62053500e-03
-1.73872826e-03, 5.62279206e-03
-1.73842791e-03, 5.62504912e-03
-1.73812755e-03, 5.62730618e-03
-1.73782720e-03, 5.62956417e-03
-1.73752685e-03, 5.63182123e-03
-1.73722650e-03, 5.63407922e-03
-1.73692615e-03, 5.63633582e-03
-1.73662580e-03, 5.63859381e-03
-1.73632544e-03, 5.64085087e-03
-1.73602509e-03, 5.64310886e-03
-1.73572474e-03, 5.64536545e-03
-1.73542439e-03, 5.64762298e-03
-1.73512404e-03, 5.64988004e-03
-1.73482369e-03, 5.65213757e-03
-1.73452334e-03, 5.65441325e-03
-1.73422298e-03, 5.65669592e-03
-1.73392263e-03, 5.65897813e-03
-1.73362228e-03, 5.66126127e-03
-1.73332193e-03, 5.66354394e-03
-1.73302158e-03, 5.66582615e-03
-1.73272123e-03, 5.66810882e-03
-1.73242087e-03, 5.67039195e-03
-1.73212052e-03, 5.67267369e-03
-1.73182017e-03, 5.67495730e-03
-1.73151982e-03, 5.67723950e-03
-1.73121947e-03, 5.67952218e-03
-1.73091912e-03, 5.68180485e-03
-1.73061877e-03, 5.68408752e-03
-1.73031841e-03, 5.68636926e-03
-1.73001806e-03, 5.68865333e-03
-1.72971771e-03, 5.69093553e-03
-1.72941736e-03, 5.69321821e-03
-1.72911701e-03, 5.69550088e-03
-1.72881666e-03, 5.69778308e-03
-1.72851630e-03, 5.70006622e-03
-1.72821595e-03, 5.70234889e-03
-1.72791560e-03, 5.70463156e-03
-1.72761525e-03, 5.70691423e-03
-1.72731490e-03, 5.70919691e-03
-1.72701455e-03, 5.71147911e-03
-1.72671420e-03, 5.71376178e-03
-1.72641384e-03, 5.71604446e-03
-1.72611349e-03, 5.71832666e-03
-1.72581314e-03, 5.72060933e-03
-1.72551279e-03, 5.72289247e-03
-1.72521244e-03, 5.72517514e-03
-1.72491209e-03, 5.72745781e-03
-1.72461173e-03, 5.72974002e-03
-1.72431138e-03, 5.73202316e-03
-1.72401103e-03, 5.73430583e-03
-1.72371068e-03, 5.73658757e-03
-1.72341033e-03, 5.73887117e-03
-1.72310998e-03, 5.74115384e-03
-1.72280963e-03, 5.74343605e-03
-1.72250927e-03, 5.74591383e-03
-1.72220892e-03, 5.74801303e-03
-1.72190857e-03, 5.75033948e-03
-1.72160822e-03, 5.75266639e-03
-1.72130787e-03, 5.75499330e-03
-1.72100752e-03, 5.75731974e-03
-1.72070717e-03, 5.75964665e-03
-1.72040681e-03, 5.76197449e-03
-1.72010646e-03, 5.76430000e-03
-1.71980611e-03, 5.76662645e-03
-1.71950576e-03, 5.76895382e-03
-1.71920541e-03, 5.77127980e-03
-1.71890506e-03, 5.77360718e-03
-1.71860470e-03, 5.77593409e-03
-1.71830435e-03, 5.77826099e-03
-1.71800400e-03, 5.78058697e-03
-1.71770365e-03, 5.78291342e-03
-1.71740330e-03, 5.78524079e-03
-1.71710295e-03, 5.78756770e-03
-1.71680260e-03, 5.78989414e-03
-1.71650224e-03, 5.79222105e-03
-1.71620189e-03, 5.79454796e-03
-1.71590154e-03, 5.79687487e-03
-1.71560119e-03, 5.79920132e-03
-1.71530084e-03, 5.80152776e-03
-1.71500049e-03, 5.80385467e-03
-1.71470013e-03, 5.80618065e-03
-1.71439978e-03, 5.80850849e-03
-1.71409943e-03, 5.81083447e-03
-1.71379908e-03, 5.81316184e-03
-1.71349873e-03, 5.81548875e-03
-1.71319838e-03, 5.81781520e-03
-1.71289803e-03, 5.82014257e-03
-1.71259767e-03, 5.82246855e-03
-1.71229732e-03, 5.82479592e-03
-1.71199697e-03, 5.82712190e-03
-1.71169662e-03, 5.82944881e-03
-1.71139627e-03, 5.83177665e-03
-1.71109592e-03, 5.83410263e-03
-1.71079556e-03, 5.83643047e-03
-1.71049521e-03, 5.83875692e-03
-1.71019486e-03, 5.84108336e-03
-1.70989451e-03, 5.84340980e-03
-1.70959416e-03, 5.84573671e-03
-1.70929381e-03, 5.84806316e-03
-1.70899346e-03, 5.85039007e-03
-1.70869310e-03, 5.85271697e-03
-1.70839275e-03, 5.85504435e-03
-1.70809240e-03, 5.85737033e-03
-1.70779205e-03, 5.85930189e-03
-1.70749170e-03, 5.86231193e-03
-1.70719135e-03, 5.86487260e-03
-1.70689099e-03, 5.86743420e-03
-1.70659064e-03, 5.86999580e-03
-1.70629029e-03, 5.87255647e-03
-1.70598994e-03, 5.87511761e-03
-1.70568959e-03, 5.87767875e-03
-1.70538924e-03, 5.88023989e-03
-1.70508889e-03, 5.88280102e-03
-1.70478853e-03, 5.88536263e-03
-1.70448818e-03, 5.88792283e-03
-1.70418783e-03, 5.89048443e-03
-1.70388748e-03, 5.89304650e-03
-1.70358713e-03, 5.89560671e-03
-1.70328678e-03, 5.89816831e-03
-1.70298642e-03, 5.90072945e-03
-1.70268607e-03, 5.90329012e-03
-1.70238572e-03, 5.90585126e-03
-1.70208537e-03, 5.90841286e-03
-1.70178502e-03, 5.91097400e-03
-1.70148467e-03, 5.91353513e-03
-1.70118432e-03, 5.91609627e-03
-1.70088396e-03, 5.91865741e-03
-1.70058361e-03, 5.92121901e-03
-1.70028326e-03, 5.92378015e-03
-1.69998291e-03, 5.92634082e-03
-1.69968256e-03, 5.92890196e-03
-1.69938221e-03, 5.93146309e-03
-1.69908185e-03, 5.93402423e-03
-1.69878150e-03, 5.93658490e-03
-1.69848115e-03, 5.93914697e-03
-1.69818080e-03, 5.94170764e-03
-1.69788045e-03, 5.94426878e-03
-1.69758010e-03, 5.94683038e-03
-1.69727975e-03, 5.94939105e-03
-1.69697939e-03, 5.95195265e-03
-1.69667904e-03, 5.95451379e-03
-1.69637869e-03, 5.95707539e-03
-1.69607834e-03, 5.95963607e-03
-1.69577799e-03, 5.96219767e-03
-1.69547764e-03, 5.96475834e-03
-1.69517729e-03, 5.96731948e-03
-1.69487693e-03, 5.96988108e-03
-1.69457658e-03, 5.97244222e-03
-1.69427623e-03, 5.97500335e-03
-1.69397588e-03, 5.97756496e-03
-1.69367553e-03, 5.98012563e-03
-1.69337518e-03, 5.98268677e-03
-1.69307482e-03, 5.98524883e-03
-1.69277447e-03, 5.98780951e-03
-1.69247412e-03, 5.99037064e-03
-1.69217377e-03, 5.99293178e-03
-1.69187342e-03, 5.99549292e-03
-1.69157307e-03, 5.99805359e-03
-1.69127272e-03, 6.00061519e-03
-1.69097236e-03, 6.00317633e-03
-1.69067201e-03, 6.00573746e-03
-1.69037166e-03, 6.00829907e-03
-1.69007131e-03, 6.01086067e-03
-1.68977096e-03, 6.01342181e-03
-1.68947061e-03, 6.01598248e-03
-1.68917025e-03, 6.01854455e-03
-1.68886990e-03, 6.02110475e-03
-1.68856955e-03, 6.02366682e-03
-1.68826920e-03, 6.02622796e-03
-1.68796885e-03, 6.02878910e-03
-1.68766850e-03, 6.03135023e-03
-1.68736815e-03, 6.03391184e-03
-1.68706779e-03, 6.03647251e-03
-1.68676744e-03, 6.03903411e-03
-1.68646709e-03, 6.04159525e-03
-1.68616674e-03, 6.04415592e-03
-1.68586639e-03, 6.04671799e-03
-1.68556604e-03, 6.04927866e-03
-1.68526568e-03, 6.05183979e-03
-1.68496533e-03, 6.05440140e-03
-1.68466498e-03, 6.05696253e-03
-1.68436463e-03, 6.05952367e-03
-1.68406428e-03, 6.06208527e-03
-1.68376393e-03, 6.06464595e-03
-1.68346358e-03, 6.06720755e-03
-1.68316322e-03, 6.06976869e-03
-1.68286287e-03, 6.07232936e-03
-1.68256252e-03, 6.07489143e-03
-1.68226217e-03, 6.07745256e-03
-1.68196182e-03, 6.08001370e-03
-1.68166147e-03, 6.08257484e-03
-1.68136111e-03, 6.08513597e-03
-1.68106076e-03, 6.08769758e-03
-1.68076041e-03, 6.09025871e-03
-1.68046006e-03, 6.09282032e-03
-1.68015971e-03, 6.09538145e-03
-1.67985936e-03, 6.09794259e-03
-1.67955901e-03, 6.10050326e-03
-1.67925865e-03, 6.10306533e-03
-1.67895830e-03, 6.10562647e-03
-1.67865795e-03, 6.10818760e-03
-1.67835760e-03, 6.11074921e-03
-1.67805725e-03, 6.11330988e-03
-1.67775690e-03, 6.11587102e-03
-1.67745654e-03, 6.11843262e-03
-1.67715619e-03, 6.12099376e-03
-1.67685584e-03, 6.12355536e-03
-1.67655549e-03, 6.12611603e-03
-1.67625514e-03, 6.12867810e-03
-1.67595479e-03, 6.13123924e-03
-1.67565444e-03, 6.13379991e-03
-1.67535408e-03, 6.13636104e-03
-1.67505373e-03, 6.13892311e-03
-1.67475338e-03, 6.14148378e-03
-1.67445303e-03, 6.14404539e-03
-1.67415268e-03, 6.14660652e-03
-1.67385233e-03, 6.14916813e-03
-1.67355197e-03, 6.15172926e-03
-1.67325162e-03, 6.15429040e-03
-1.67295127e-03, 6.15685200e-03
-1.67265092e-03, 6.15941267e-03
-1.67235057e-03, 6.16197428e-03
-1.67205022e-03, 6.16453588e-03
-1.67174987e-03, 6.16709748e-03
-1.67144951e-03, 6.16965862e-03
-1.67114916e-03, 6.17221929e-03
-1.67084881e-03, 6.17478089e-03
-1.67054846e-03, 6.17734250e-03
-1.67024811e-03, 6.17990363e-03
-1.66994776e-03, 6.18246524e-03
-1.66964740e-03, 6.18502591e-03
-1.66934705e-03, 6.18758751e-03
-1.66904670e-03, 6.19014865e-03
-1.66874635e-03, 6.19271025e-03
-1.66844600e-03, 6.19527139e-03
-1.66814565e-03, 6.19783252e-03
-1.66784530e-03, 6.20039366e-03
-1.66754494e-03, 6.20295573e-03
-1.66724459e-03, 6.20551687e-03
-1.66694424e-03, 6.20807847e-03
-1.66664389e-03, 6.21063914e-03
-1.66634354e-03, 6.21320028e-03
-1.66604319e-03, 6.21576235e-03
-1.66574284e-03, 6.21832348e-03
-1.66544248e-03, 6.22088462e-03
-1.66514213e-03, 6.22344622e-03
-1.66484178e-03, 6.22600783e-03
-1.66454143e-03, 6.22856850e-03
-1.66424108e-03, 6.23112917e-03
-1.66394073e-03, 6.23369077e-03
-1.66364037e-03, 6.23625284e-03
-1.66334002e-03, 6.23881444e-03
-1.66303967e-03, 6.24137511e-03
-1.66273932e-03, 6.24393672e-03
-1.66243897e-03, 6.24649832e-03
-1.66213862e-03, 6.24905946e-03
-1.66183827e-03, 6.25162106e-03
-1.66153791e-03, 6.25418173e-03
-1.66123756e-03, 6.25674380e-03
-1.66093721e-03, 6.25930494e-03
-1.66063686e-03, 6.26186607e-03
-1.66033651e-03, 6.26442768e-03
-1.66003616e-03, 6.26698928e-03
-1.65973580e-03, 6.26955088e-03
-1.65943545e-03, 6.27211109e-03
-1.65913510e-03, 6.27467269e-03
-1.65883475e-03, 6.27723429e-03
-1.65853440e-03, 6.27979543e-03
-1.65823405e-03, 6.28235703e-03
-1.65793370e-03, 6.28491817e-03
-1.65763334e-03, 6.28747931e-03
-1.65733299e-03, 6.29004324e-03
-1.65703264e-03, 6.29260438e-03
-1.65673229e-03, 6.29516551e-03
-1.65643194e-03, 6.29772758e-03
-1.65613159e-03, 6.30028918e-03
-1.65583123e-03, 6.30285079e-03
-1.65553088e-03, 6.30541239e-03
-1.65523053e-03, 6.30797399e-03
-1.65493018e-03, 6.31053606e-03
-1.65462983e-03, 6.31309673e-03
-1.65432948e-03, 6.31565880e-03
-1.65402913e-03, 6.31822133e-03
-1.65372877e-03, 6.32078294e-03
-1.65342842e-03, 6.32334407e-03
-1.65312807e-03, 6.32590568e-03
-1.65282772e-03, 6.32846728e-03
-1.65252737e-03, 6.33102935e-03
-1.65222702e-03, 6.33359049e-03
-1.65192666e-03, 6.33615255e-03
-1.65162631e-03, 6.33871416e-03
-1.65132596e-03, 6.34127576e-03
-1.65102561e-03, 6.34383690e-03
-1.65072526e-03, 6.34639943e-03
-1.65042491e-03, 6.34860992e-03
-1.65012456e-03, 6.35152077e-03
-1.64982420e-03, 6.35408238e-03
-1.64952385e-03, 6.35664305e-03
-1.64922350e-03, 6.35914830e-03
-1.64892315e-03, 6.36164006e-03
-1.64862280e-03, 6.36413181e-03
-1.64832245e-03, 6.36662310e-03
-1.64802209e-03, 6.36911439e-03
-1.64772174e-03, 6.37160661e-03
-1.64742139e-03, 6.37409836e-03
-1.64712104e-03, 6.37658918e-03
-1.64682069e-03, 6.37908140e-03
-1.64652034e-03, 6.38157316e-03
-1.64621999e-03, 6.38406491e-03
-1.64591963e-03, 6.38655573e-03
-1.64561928e-03, 6.38904748e-03
-1.64531893e-03, 6.39153970e-03
-1.64501858e-03, 6.39403099e-03
-1.64471823e-03, 6.39652321e-03
-1.64441788e-03, 6.39901496e-03
-1.64411752e-03, 6.40150579e-03
-1.64381717e-03, 6.40399801e-03
-1.64351682e-03, 6.40648976e-03
-1.64321647e-03, 6.40898198e-03
-1.64291612e-03, 6.41147327e-03
-1.64261577e-03, 6.41396455e-03
-1.64231542e-03, 6.41580718e-03
-1.64201506e-03, 6.41923118e-03
-1.64171471e-03, 6.42193714e-03
-1.64141436e-03, 6.42464310e-03
-1.64111401e-03, 6.42734952e-03
-1.64081366e-03, 6.43005595e-03
-1.64051331e-03, 6.43276237e-03
-1.64021295e-03, 6.43546786e-03
-1.63991260e-03, 6.43817428e-03
-1.63961225e-03, 6.44088071e-03
-1.63931190e-03, 6.44358760e-03
-1.63901155e-03, 6.44629356e-03
-1.63871120e-03, 6.44899951e-03
-1.63841085e-03, 6.45170547e-03
-1.63811049e-03, 6.45441189e-03
-1.63781014e-03, 6.45711785e-03
-1.63750979e-03, 6.45982428e-03
-1.63720944e-03, 6.46253070e-03
-1.63690909e-03, 6.46523712e-03
-1.63660874e-03, 6.46794308e-03
-1.63630839e-03, 6.47064904e-03
-1.63600803e-03, 6.47335593e-03
-1.63570768e-03, 6.47606282e-03
-1.63540733e-03, 6.47876924e-03
-1.63510698e-03, 6.48147473e-03
-1.63480663e-03, 6.48418115e-03
-1.63450628e-03, 6.48688758e-03
-1.63420592e-03, 6.48959400e-03
-1.63390557e-03, 6.49237586e-03
-1.63360522e-03, 6.49499148e-03
-1.63330487e-03, 6.49760757e-03
-1.63300452e-03, 6.50022272e-03
-1.63270417e-03, 6.50283881e-03
-1.63240382e-03, 6.50545442e-03
-1.63210346e-03, 6.50807051e-03
-1.63180311e-03, 6.51068566e-03
-1.63150276e-03, 6.51330175e-03
-1.63120241e-03, 6.51591737e-03
-1.63090206e-03, 6.51853345e-03
-1.63060171e-03, 6.52114814e-03
-1.63030135e-03, 6.52376423e-03
-1.63000100e-03, 6.52638031e-03
-1.62970065e-03, 6.52899640e-03
-1.62940030e-03, 6.53161202e-03
-1.62909995e-03, 6.53422764e-03
-1.62879960e-03, 6.53684326e-03
-1.62849925e-03, 6.53945841e-03
-1.62819889e-03, 6.54207496e-03
-1.62789854e-03, 6.54469058e-03
-1.62759819e-03, 6.54730620e-03
-1.62729784e-03, 6.54992228e-03
-1.62699749e-03, 6.55253790e-03
-1.62669714e-03, 6.55515352e-03
-1.62639678e-03, 6.55776961e-03
-1.62609643e-03, 6.56038569e-03
-1.62579608e-03, 6.56300085e-03
-1.62549573e-03, 6.56561740e-03
-1.62519538e-03, 6.56823302e-03
-1.62489503e-03, 6.57084864e-03
-1.62459468e-03, 6.57346379e-03
-1.62429432e-03, 6.57607988e-03
-1.62399397e-03, 6.57825032e-03
-1.62369362e-03, 6.58100098e-03
-1.62339327e-03, 6.58343686e-03
-1.62309292e-03, 6.58587227e-03
-1.62279257e-03, 6.58830767e-03
-1.62249221e-03, 6.59074355e-03
-1.62219186e-03, 6.59317942e-03
-1.62189151e-03, 6.59561530e-03
-1.62159116e-03, 6.59805024e-03
-1.62129081e-03, 6.60048611e-03
-1.62099046e-03, 6.60292152e-03
-1.62069011e-03, 6.60535647e-03
-1.62038975e-03, 6.60779281e-03
-1.62008940e-03, 6.61022821e-03
-1.61978905e-03, 6.61266502e-03
-1.61948870e-03, 6.61509950e-03
-1.61918835e-03, 6.61753584e-03
-1.61888800e-03, 6.61997171e-03
-1.61858764e-03, 6.62240712e-03
-1.61828729e-03, 6.62484253e-03
-1.61798694e-03, 6.62727840e-03
-1.61768659e-03, 6.62971428e-03
-1.61738624e-03, 6.63214969e-03
-1.61708589e-03, 6.63458556e-03
-1.61678554e-03, 6.63702097e-03
-1.61648518e-03, 6.63945777e-03
-1.61618483e-03, 6.64189318e-03
-1.61588448e-03, 6.64432906e-03
-1.61558413e-03, 6.64676400e-03
-1.61528378e-03, 6.64919987e-03
-1.61498343e-03, 6.65163528e-03
-1.61468307e-03, 6.65407116e-03
-1.61438272e-03, 6.65650703e-03
-1.61408237e-03, 6.65894244e-03
-1.61378202e-03, 6.66137831e-03
