[Name]
Series 1 for Case v9_m5_289 at /LINE:Line horizontal 28

[Data]
X [ m ],Velocity [ m s^-1 ]
2.09999993e-03, 6.03154674e-03
2.10030028e-03, 6.02910947e-03
2.10060063e-03, 6.02667173e-03
2.10090098e-03, 6.02423493e-03
2.10120133e-03, 6.02179952e-03
2.10150168e-03, 6.01936411e-03
2.10180203e-03, 6.01692870e-03
2.10210239e-03, 6.01449469e-03
2.10240274e-03, 6.01206115e-03
2.10270309e-03, 6.00962806e-03
2.10300344e-03, 6.00719545e-03
2.10330379e-03, 6.00476377e-03
2.10360414e-03, 6.00233255e-03
2.10390450e-03, 5.99990226e-03
2.10420485e-03, 5.99735137e-03
2.10450520e-03, 5.99553902e-03
2.10480555e-03, 5.99366054e-03
2.10510590e-03, 5.99178299e-03
2.10540625e-03, 5.98990452e-03
2.10570660e-03, 5.98802604e-03
2.10600696e-03, 5.98614849e-03
2.10630731e-03, 5.98427141e-03
2.10660766e-03, 5.98239480e-03
2.10690801e-03, 5.98051772e-03
2.10720836e-03, 5.97864157e-03
2.10750871e-03, 5.97676588e-03
2.10780906e-03, 5.97488973e-03
2.10810942e-03, 5.97301451e-03
2.10840977e-03, 5.97113930e-03
2.10871012e-03, 5.96926361e-03
2.10901047e-03, 5.96738933e-03
2.10931082e-03, 5.96551504e-03
2.10961117e-03, 5.96364122e-03
2.10991153e-03, 5.96176740e-03
2.11021188e-03, 5.95989358e-03
2.11051223e-03, 5.95802115e-03
2.11081258e-03, 5.95614826e-03
2.11111293e-03, 5.95403416e-03
2.11141328e-03, 5.95235405e-03
2.11171363e-03, 5.95041830e-03
2.11201399e-03, 5.94848394e-03
2.11231434e-03, 5.94654912e-03
2.11261469e-03, 5.94461523e-03
2.11291504e-03, 5.94268087e-03
2.11321539e-03, 5.94074791e-03
2.11351574e-03, 5.93881402e-03
2.11381610e-03, 5.93688106e-03
2.11411645e-03, 5.93494857e-03
2.11441680e-03, 5.93301654e-03
2.11471715e-03, 5.93108498e-03
2.11501750e-03, 5.92915341e-03
2.11531785e-03, 5.92722232e-03
2.11561820e-03, 5.92529168e-03
2.11591856e-03, 5.92336152e-03
2.11621891e-03, 5.92143089e-03
2.11651926e-03, 5.91950072e-03
2.11681961e-03, 5.91757195e-03
2.11711996e-03, 5.91564272e-03
2.11742031e-03, 5.91371395e-03
2.11772067e-03, 5.91178564e-03
2.11802102e-03, 5.90985781e-03
2.11832137e-03, 5.90792997e-03
2.11862172e-03, 5.90600306e-03
2.11892207e-03, 5.90407569e-03
2.11922242e-03, 5.90256415e-03
2.11952277e-03, 5.90056134e-03
2.11982313e-03, 5.89884026e-03
2.12012348e-03, 5.89711824e-03
2.12042383e-03, 5.89539763e-03
2.12072418e-03, 5.89367747e-03
2.12102453e-03, 5.89195685e-03
2.12132488e-03, 5.89023717e-03
2.12162524e-03, 5.88851701e-03
2.12192559e-03, 5.88679779e-03
2.12222594e-03, 5.88507904e-03
2.12252629e-03, 5.88335982e-03
2.12282664e-03, 5.88164153e-03
2.12312699e-03, 5.87992417e-03
2.12342734e-03, 5.87820541e-03
2.12372770e-03, 5.87648805e-03
2.12402805e-03, 5.87477069e-03
2.12432840e-03, 5.87305427e-03
2.12462875e-03, 5.87133784e-03
2.12492910e-03, 5.86962095e-03
2.12522945e-03, 5.86790545e-03
2.12552981e-03, 5.86618902e-03
2.12583016e-03, 5.86447446e-03
2.12613051e-03, 5.86275896e-03
2.12643086e-03, 5.86104393e-03
2.12673121e-03, 5.85932983e-03
2.12703156e-03, 5.85761620e-03
2.12733191e-03, 5.85590163e-03
2.12763227e-03, 5.85418846e-03
2.12793262e-03, 5.85247530e-03
2.12823297e-03, 5.85076213e-03
2.12853332e-03, 5.84904943e-03
2.12883367e-03, 5.84733719e-03
2.12913402e-03, 5.84562542e-03
2.12943438e-03, 5.84391365e-03
2.12973473e-03, 5.84220234e-03
2.13003508e-03, 5.84049150e-03
2.13033543e-03, 5.83878020e-03
2.13063578e-03, 5.83707029e-03
2.13093613e-03, 5.83536085e-03
2.13123648e-03, 5.83365047e-03
2.13153684e-03, 5.83194150e-03
2.13183719e-03, 5.83023252e-03
2.13213754e-03, 5.82852354e-03
2.13243789e-03, 5.82681503e-03
2.13273824e-03, 5.82510652e-03
2.13303859e-03, 5.82339847e-03
2.13333894e-03, 5.82169089e-03
2.13363930e-03, 5.81998378e-03
2.13393965e-03, 5.81827760e-03
2.13424000e-03, 5.81657095e-03
2.13454035e-03, 5.81486430e-03
2.13484070e-03, 5.81315858e-03
2.13514105e-03, 5.81145287e-03
2.13544141e-03, 5.80974761e-03
2.13574176e-03, 5.80804236e-03
2.13604211e-03, 5.80633804e-03
2.13634246e-03, 5.80463372e-03
2.13664281e-03, 5.80292940e-03
2.13694316e-03, 5.80122601e-03
2.13724351e-03, 5.79952262e-03
2.13754387e-03, 5.79781923e-03
2.13784422e-03, 5.79611678e-03
2.13814457e-03, 5.79441432e-03
2.13844492e-03, 5.79271233e-03
2.13874527e-03, 5.79101034e-03
2.13904562e-03, 5.78930881e-03
2.13934598e-03, 5.78760775e-03
2.13964633e-03, 5.78590715e-03
2.13994668e-03, 5.78420656e-03
2.14024703e-03, 5.78250643e-03
2.14054738e-03, 5.78080723e-03
2.14084773e-03, 5.77910757e-03
2.14114808e-03, 5.77740837e-03
2.14144844e-03, 5.77570917e-03
2.14174879e-03, 5.77401044e-03
2.14204914e-03, 5.77231264e-03
2.14234949e-03, 5.77061437e-03
2.14264984e-03, 5.76891657e-03
2.14295019e-03, 5.76721970e-03
2.14325055e-03, 5.76552236e-03
2.14355090e-03, 5.76382596e-03
2.14385125e-03, 5.76213002e-03
2.14415160e-03, 5.76043408e-03
2.14445195e-03, 5.75873861e-03
2.14475230e-03, 5.75704314e-03
2.14505265e-03, 5.75534813e-03
2.14535301e-03, 5.75365406e-03
2.14565336e-03, 5.75195905e-03
2.14595371e-03, 5.75026544e-03
2.14625406e-03, 5.74857136e-03
2.14655441e-03, 5.74687868e-03
2.14685476e-03, 5.74518600e-03
2.14715512e-03, 5.74349333e-03
2.14745547e-03, 5.74180065e-03
2.14775582e-03, 5.74010890e-03
2.14805617e-03, 5.73841669e-03
2.14835652e-03, 5.73672494e-03
2.14865687e-03, 5.73503505e-03
2.14895722e-03, 5.73334424e-03
2.14925758e-03, 5.73165389e-03
2.14955793e-03, 5.72996400e-03
2.14985828e-03, 5.72827458e-03
2.15015863e-03, 5.72658516e-03
2.15045898e-03, 5.72489575e-03
2.15075933e-03, 5.72320726e-03
2.15105969e-03, 5.72151924e-03
2.15136004e-03, 5.71983121e-03
2.15166039e-03, 5.71814319e-03
2.15196074e-03, 5.71645610e-03
2.15226109e-03, 5.71476901e-03
2.15256144e-03, 5.71308238e-03
2.15286179e-03, 5.71139529e-03
2.15316215e-03, 5.70971007e-03
2.15346250e-03, 5.70802437e-03
2.15376285e-03, 5.70633914e-03
2.15406320e-03, 5.70465438e-03
2.15436355e-03, 5.70297008e-03
2.15466390e-03, 5.70128532e-03
2.15496426e-03, 5.69960149e-03
2.15526461e-03, 5.69791812e-03
2.15556496e-03, 5.69623429e-03
2.15586531e-03, 5.69455139e-03
2.15616566e-03, 5.69286896e-03
2.15646601e-03, 5.69118699e-03
2.15676636e-03, 5.68950456e-03
2.15706672e-03, 5.68782352e-03
2.15736707e-03, 5.68614202e-03
2.15766742e-03, 5.68446098e-03
2.15796777e-03, 5.68278087e-03
2.15826812e-03, 5.68110030e-03
2.15856847e-03, 5.67942020e-03
2.15886883e-03, 5.67774056e-03
2.15916918e-03, 5.67606138e-03
2.15946953e-03, 5.67438314e-03
2.15976988e-03, 5.67270443e-03
2.16007023e-03, 5.67102619e-03
2.16037058e-03, 5.66934841e-03
2.16067093e-03, 5.66767110e-03
2.16097129e-03, 5.66599425e-03
2.16127164e-03, 5.66431694e-03
2.16157199e-03, 5.66264009e-03
2.16187234e-03, 5.66096418e-03
2.16217269e-03, 5.65928873e-03
2.16247304e-03, 5.65761328e-03
2.16277339e-03, 5.65593829e-03
2.16307375e-03, 5.65426378e-03
2.16337410e-03, 5.65258972e-03
2.16367445e-03, 5.65091521e-03
2.16397480e-03, 5.64924162e-03
2.16427515e-03, 5.64756803e-03
2.16457550e-03, 5.64589584e-03
2.16487586e-03, 5.64422272e-03
2.16517621e-03, 5.64255053e-03
2.16547656e-03, 5.64087881e-03
2.16577691e-03, 5.63920708e-03
2.16607726e-03, 5.63753583e-03
2.16637761e-03, 5.63586503e-03
2.16667796e-03, 5.63419471e-03
2.16697832e-03, 5.63252438e-03
2.16727867e-03, 5.63085452e-03
2.16757902e-03, 5.62918512e-03
2.16787937e-03, 5.62751573e-03
2.16817972e-03, 5.62584680e-03
2.16848007e-03, 5.62417880e-03
2.16878043e-03, 5.62251080e-03
2.16908078e-03, 5.62084280e-03
2.16938113e-03, 5.61917573e-03
2.16968148e-03, 5.61750820e-03
2.16998183e-03, 5.61584160e-03
2.17028218e-03, 5.61417546e-03
2.17058253e-03, 5.61250979e-03
2.17088289e-03, 5.61084412e-03
2.17118324e-03, 5.60917845e-03
2.17148359e-03, 5.60751371e-03
2.17178394e-03, 5.60584944e-03
2.17208429e-03, 5.60418516e-03
2.17238464e-03, 5.60252089e-03
2.17268500e-03, 5.60089201e-03
2.17298535e-03, 5.59923798e-03
2.17328570e-03, 5.59758488e-03
2.17358605e-03, 5.59593085e-03
2.17388640e-03, 5.59427822e-03
2.17418675e-03, 5.59262559e-03
2.17448710e-03, 5.59097342e-03
2.17478746e-03, 5.58932079e-03
2.17508781e-03, 5.58766909e-03
2.17538816e-03, 5.58601832e-03
2.17568851e-03, 5.58436709e-03
2.17598886e-03, 5.58271678e-03
2.17628921e-03, 5.58106694e-03
2.17658957e-03, 5.57941711e-03
2.17688992e-03, 5.57776773e-03
2.17719027e-03, 5.57611883e-03
2.17749062e-03, 5.57446992e-03
2.17779097e-03, 5.57282194e-03
2.17809132e-03, 5.57117350e-03
2.17839167e-03, 5.56952553e-03
2.17869203e-03, 5.56787848e-03
2.17899238e-03, 5.56623144e-03
2.17929273e-03, 5.56458533e-03
2.17959308e-03, 5.56293968e-03
2.17989343e-03, 5.56129310e-03
2.18019378e-03, 5.55964792e-03
2.18049414e-03, 5.55800227e-03
2.18079449e-03, 5.55635756e-03
2.18109484e-03, 5.55471331e-03
2.18139519e-03, 5.55306952e-03
2.18169554e-03, 5.55142574e-03
2.18199589e-03, 5.54978196e-03
2.18229624e-03, 5.54813910e-03
2.18259660e-03, 5.54649672e-03
2.18289695e-03, 5.54485433e-03
2.18319730e-03, 5.54321241e-03
2.18349765e-03, 5.54146245e-03
2.18379800e-03, 5.53966546e-03
2.18409835e-03, 5.53774461e-03
2.18439871e-03, 5.53582329e-03
2.18469906e-03, 5.53390291e-03
2.18499941e-03, 5.53198205e-03
2.18529976e-03, 5.53006213e-03
2.18560011e-03, 5.52814174e-03
2.18590046e-03, 5.52622229e-03
2.18620081e-03, 5.52430330e-03
2.18650117e-03, 5.52238477e-03
2.18680152e-03, 5.52046485e-03
2.18710187e-03, 5.51854633e-03
2.18740222e-03, 5.51662873e-03
2.18770257e-03, 5.51471021e-03
2.18800292e-03, 5.51279308e-03
2.18830328e-03, 5.51087549e-03
2.18860363e-03, 5.50895836e-03
2.18890398e-03, 5.50700724e-03
2.18920433e-03, 5.50493272e-03
2.18950468e-03, 5.50322188e-03
2.18980503e-03, 5.50131174e-03
2.19010538e-03, 5.49940113e-03
2.19040574e-03, 5.49749192e-03
2.19070609e-03, 5.49558271e-03
2.19100644e-03, 5.49367210e-03
2.19130679e-03, 5.49176382e-03
2.19160714e-03, 5.48985414e-03
2.19190749e-03, 5.48794586e-03
2.19220784e-03, 5.48603758e-03
2.19250820e-03, 5.48412930e-03
2.19280855e-03, 5.48222102e-03
2.19310890e-03, 5.48031367e-03
2.19340925e-03, 5.47840586e-03
2.19370960e-03, 5.47649898e-03
2.19400995e-03, 5.47459163e-03
2.19431031e-03, 5.47268474e-03
2.19461066e-03, 5.47077833e-03
2.19491101e-03, 5.46887098e-03
2.19521136e-03, 5.46696549e-03
2.19551171e-03, 5.46506001e-03
2.19581206e-03, 5.46315359e-03
2.19611241e-03, 5.46124857e-03
2.19641277e-03, 5.45934355e-03
2.19671312e-03, 5.45743806e-03
2.19701347e-03, 5.45553397e-03
2.19731382e-03, 5.45362895e-03
2.19761417e-03, 5.45172393e-03
2.19791452e-03, 5.44982078e-03
2.19821488e-03, 5.44791622e-03
2.19851523e-03, 5.44601306e-03
2.19881558e-03, 5.44410944e-03
2.19911593e-03, 5.44220582e-03
2.19941628e-03, 5.44030219e-03
2.19971663e-03, 5.43840043e-03
2.20001698e-03, 5.43649774e-03
2.20031734e-03, 5.43459645e-03
2.20061769e-03, 5.43269375e-03
2.20091804e-03, 5.43079153e-03
2.20121839e-03, 5.42889023e-03
2.20151874e-03, 5.42698894e-03
2.20181909e-03, 5.42508764e-03
2.20211945e-03, 5.42318728e-03
2.20241980e-03, 5.42128645e-03
2.20272015e-03, 5.41938609e-03
2.20302050e-03, 5.41748572e-03
2.20332085e-03, 5.41558536e-03
2.20362120e-03, 5.41368546e-03
2.20392155e-03, 5.41178696e-03
2.20422191e-03, 5.40988753e-03
2.20452226e-03, 5.40798903e-03
2.20482261e-03, 5.40608959e-03
2.20512296e-03, 5.40419109e-03
2.20542331e-03, 5.40226838e-03
2.20572366e-03, 5.40024554e-03
2.20602402e-03, 5.39822364e-03
2.20632437e-03, 5.39620081e-03
2.20662472e-03, 5.39417891e-03
2.20692507e-03, 5.39215747e-03
2.20722542e-03, 5.39013650e-03
2.20752577e-03, 5.38811460e-03
2.20782612e-03, 5.38609363e-03
2.20812648e-03, 5.38407313e-03
2.20842683e-03, 5.38205262e-03
2.20872718e-03, 5.38003258e-03
2.20902753e-03, 5.37801208e-03
2.20932788e-03, 5.37599297e-03
2.20962823e-03, 5.37397340e-03
2.20992859e-03, 5.37195429e-03
2.21022894e-03, 5.36993518e-03
2.21052929e-03, 5.36791654e-03
2.21082964e-03, 5.36589837e-03
2.21112999e-03, 5.36388066e-03
2.21143034e-03, 5.36186201e-03
2.21173069e-03, 5.35984430e-03
2.21203105e-03, 5.35782706e-03
2.21233140e-03, 5.35580982e-03
2.21263175e-03, 5.35379257e-03
2.21293210e-03, 5.35177626e-03
2.21323245e-03, 5.34975994e-03
2.21353280e-03, 5.34774410e-03
2.21383316e-03, 5.34572778e-03
2.21413351e-03, 5.34371193e-03
2.21443386e-03, 5.34169702e-03
2.21473421e-03, 5.33968117e-03
2.21503456e-03, 5.33766672e-03
2.21533491e-03, 5.33565227e-03
2.21563526e-03, 5.33363828e-03
2.21593562e-03, 5.33162383e-03
2.21623597e-03, 5.32960985e-03
2.21653632e-03, 5.32759586e-03
2.21683667e-03, 5.32558281e-03
2.21713702e-03, 5.32356976e-03
2.21743737e-03, 5.32155670e-03
2.21773773e-03, 5.31954411e-03
2.21803808e-03, 5.31753199e-03
2.21833843e-03, 5.31551987e-03
2.21863878e-03, 5.31350821e-03
2.21893913e-03, 5.31149656e-03
2.21923948e-03, 5.30948490e-03
2.21953983e-03, 5.30747464e-03
2.21984019e-03, 5.30546298e-03
2.22014054e-03, 5.30345319e-03
2.22044089e-03, 5.30144293e-03
2.22074124e-03, 5.29943267e-03
2.22104159e-03, 5.29753277e-03
2.22134194e-03, 5.29542752e-03
2.22164229e-03, 5.29343402e-03
2.22194265e-03, 5.29145822e-03
2.22224300e-03, 5.28948335e-03
2.22254335e-03, 5.28750801e-03
2.22284370e-03, 5.28553408e-03
2.22314405e-03, 5.28355921e-03
2.22344440e-03, 5.28158480e-03
2.22374476e-03, 5.27961133e-03
2.22404511e-03, 5.27763786e-03
2.22434546e-03, 5.27566439e-03
2.22464581e-03, 5.27369091e-03
2.22494616e-03, 5.27171791e-03
2.22524651e-03, 5.26974490e-03
2.22554686e-03, 5.26777282e-03
2.22584722e-03, 5.26580028e-03
2.22614757e-03, 5.26382867e-03
2.22644792e-03, 5.26185706e-03
2.22674827e-03, 5.25988545e-03
2.22704862e-03, 5.25791384e-03
2.22734897e-03, 5.25594223e-03
2.22764933e-03, 5.25397155e-03
2.22794968e-03, 5.25200088e-03
2.22825003e-03, 5.25003020e-03
2.22855038e-03, 5.24805998e-03
2.22885073e-03, 5.24609024e-03
2.22915108e-03, 5.24412002e-03
2.22945143e-03, 5.24215121e-03
2.22975179e-03, 5.24018193e-03
2.23005214e-03, 5.23821265e-03
2.23035249e-03, 5.23624383e-03
2.23065284e-03, 5.23427501e-03
2.23095319e-03, 5.23230666e-03
2.23125354e-03, 5.23033878e-03
2.23155390e-03, 5.22837043e-03
2.23185425e-03, 5.22640347e-03
2.23215460e-03, 5.22443559e-03
2.23245495e-03, 5.22246910e-03
2.23275530e-03, 5.22050168e-03
2.23305565e-03, 5.21853520e-03
2.23335600e-03, 5.21656871e-03
2.23365636e-03, 5.21460269e-03
2.23395671e-03, 5.21263620e-03
2.23425706e-03, 5.21067018e-03
2.23455741e-03, 5.20870509e-03
2.23485776e-03, 5.20673906e-03
2.23515811e-03, 5.20477490e-03
2.23545847e-03, 5.20280981e-03
2.23575882e-03, 5.20084472e-03
2.23605917e-03, 5.19888103e-03
2.23635952e-03, 5.19691687e-03
2.23665987e-03, 5.19511802e-03
2.23696022e-03, 5.19332103e-03
2.23726057e-03, 5.19152498e-03
2.23756093e-03, 5.18972939e-03
2.23786128e-03, 5.18793380e-03
2.23816163e-03, 5.18613821e-03
2.23846198e-03, 5.18434355e-03
2.23876233e-03, 5.18254936e-03
2.23906268e-03, 5.18075563e-03
2.23936304e-03, 5.17896190e-03
2.23966339e-03, 5.17716911e-03
2.23996374e-03, 5.17532555e-03
2.24026409e-03, 5.17367152e-03
2.24056444e-03, 5.17197000e-03
2.24086479e-03, 5.17026847e-03
2.24116514e-03, 5.16856788e-03
2.24146550e-03, 5.16686728e-03
2.24176585e-03, 5.16516715e-03
2.24206620e-03, 5.16346702e-03
2.24236655e-03, 5.16176643e-03
2.24266690e-03, 5.16006770e-03
2.24296725e-03, 5.15836896e-03
2.24326761e-03, 5.15667023e-03
2.24356796e-03, 5.15497103e-03
2.24386831e-03, 5.15327323e-03
2.24416866e-03, 5.15157543e-03
2.24446901e-03, 5.14987716e-03
2.24476936e-03, 5.14818029e-03
2.24506971e-03, 5.14648389e-03
2.24537007e-03, 5.14478702e-03
2.24567042e-03, 5.14309062e-03
2.24597077e-03, 5.14139468e-03
2.24627112e-03, 5.13969874e-03
2.24657147e-03, 5.13800327e-03
2.24687182e-03, 5.13630733e-03
2.24717217e-03, 5.13461279e-03
2.24747253e-03, 5.13291825e-03
2.24777288e-03, 5.13122417e-03
2.24807323e-03, 5.12953056e-03
2.24837358e-03, 5.12783695e-03
2.24867393e-03, 5.12614334e-03
2.24897428e-03, 5.12445020e-03
2.24927464e-03, 5.12275705e-03
2.24957499e-03, 5.12106530e-03
2.24987534e-03, 5.11937309e-03
2.25017569e-03, 5.11768134e-03
2.25047604e-03, 5.11599006e-03
2.25077639e-03, 5.11429831e-03
2.25107674e-03, 5.11260750e-03
2.25137710e-03, 5.11091715e-03
2.25167745e-03, 5.10922680e-03
2.25197780e-03, 5.10753691e-03
2.25227815e-03, 5.10584749e-03
2.25257850e-03, 5.10415807e-03
2.25287885e-03, 5.10246912e-03
2.25317921e-03, 5.10078063e-03
2.25347956e-03, 5.09909168e-03
2.25377991e-03, 5.09740412e-03
2.25408026e-03, 5.09571657e-03
2.25438061e-03, 5.09402901e-03
2.25468096e-03, 5.09234192e-03
2.25498131e-03, 5.09065483e-03
2.25528167e-03, 5.08896867e-03
2.25558202e-03, 5.08728251e-03
2.25588237e-03, 5.08559635e-03
2.25618272e-03, 5.08391066e-03
2.25648307e-03, 5.08222543e-03
2.25678342e-03, 5.08054066e-03
2.25708378e-03, 5.07885637e-03
2.25738413e-03, 5.07717161e-03
2.25768448e-03, 5.07548824e-03
2.25798483e-03, 5.07380441e-03
2.25828518e-03, 5.07212058e-03
2.25858553e-03, 5.07043814e-03
2.25888588e-03, 5.06875524e-03
2.25918624e-03, 5.06707234e-03
2.25948659e-03, 5.06539084e-03
2.25978694e-03, 5.06370934e-03
2.26008729e-03, 5.06202737e-03
2.26038764e-03, 5.06034633e-03
2.26068799e-03, 5.05866576e-03
2.26098835e-03, 5.05698565e-03
2.26128870e-03, 5.05530508e-03
2.26158905e-03, 5.05362544e-03
2.26188940e-03, 5.05194580e-03
2.26218975e-03, 5.05026663e-03
2.26249010e-03, 5.04858792e-03
2.26279045e-03, 5.04690921e-03
2.26309081e-03, 5.04523097e-03
2.26339116e-03, 5.04355365e-03
2.26369151e-03, 5.04187588e-03
2.26399186e-03, 5.04019810e-03
2.26429221e-03, 5.03852125e-03
2.26459256e-03, 5.03684441e-03
2.26489292e-03, 5.03516849e-03
2.26519327e-03, 5.03349258e-03
2.26549362e-03, 5.03181713e-03
2.26579397e-03, 5.03014214e-03
2.26609432e-03, 5.02846669e-03
2.26639467e-03, 5.02679218e-03
2.26669502e-03, 5.02511766e-03
2.26699538e-03, 5.02302358e-03
2.26729573e-03, 5.02145151e-03
2.26759608e-03, 5.01987990e-03
2.26789643e-03, 5.01830876e-03
2.26819678e-03, 5.01673715e-03
2.26849713e-03, 5.01509709e-03
2.26879749e-03, 5.01344539e-03
2.26909784e-03, 5.01179416e-03
2.26939819e-03, 5.01014385e-03
2.26969854e-03, 5.00849355e-03
2.26999889e-03, 5.00684371e-03
2.27029924e-03, 5.00519481e-03
2.27059959e-03, 5.00354543e-03
2.27089995e-03, 5.00189653e-03
2.27120030e-03, 5.00024762e-03
2.27150065e-03, 4.99859918e-03
2.27180100e-03, 4.99695167e-03
2.27210135e-03, 4.99530416e-03
2.27240170e-03, 4.99365712e-03
2.27270206e-03, 4.99200961e-03
2.27300241e-03, 4.99036256e-03
2.27330276e-03, 4.98871645e-03
2.27360311e-03, 4.98707034e-03
2.27390346e-03, 4.98542469e-03
2.27420381e-03, 4.98377951e-03
2.27450416e-03, 4.98213479e-03
2.27480452e-03, 4.98049008e-03
2.27510487e-03, 4.97884583e-03
2.27540522e-03, 4.97720251e-03
2.27570557e-03, 4.97555919e-03
2.27600592e-03, 4.97391494e-03
2.27630627e-03, 4.97227209e-03
2.27660662e-03, 4.97062970e-03
2.27690698e-03, 4.96898778e-03
2.27720733e-03, 4.96734539e-03
2.27750768e-03, 4.96570393e-03
2.27780803e-03, 4.96406294e-03
2.27810838e-03, 4.96242195e-03
2.27840873e-03, 4.96078143e-03
2.27870909e-03, 4.95914137e-03
2.27900944e-03, 4.95750178e-03
2.27930979e-03, 4.95586265e-03
2.27961014e-03, 4.95422306e-03
2.27991049e-03, 4.95258393e-03
2.28021084e-03, 4.95094573e-03
2.28051119e-03, 4.94930753e-03
2.28081155e-03, 4.94766980e-03
2.28111190e-03, 4.94603254e-03
2.28141225e-03, 4.94439527e-03
2.28171260e-03, 4.94275847e-03
2.28201295e-03, 4.94112168e-03
2.28231330e-03, 4.93948581e-03
2.28261366e-03, 4.93785040e-03
2.28291401e-03, 4.93621500e-03
2.28321436e-03, 4.93458053e-03
2.28351471e-03, 4.93294513e-03
2.28381506e-03, 4.93131112e-03
2.28411541e-03, 4.92967712e-03
2.28441576e-03, 4.92804358e-03
2.28471612e-03, 4.92641050e-03
2.28501647e-03, 4.92477743e-03
2.28531682e-03, 4.92314436e-03
2.28561717e-03, 4.92151221e-03
2.28591752e-03, 4.91988007e-03
2.28621787e-03, 4.91824886e-03
2.28651823e-03, 4.91661765e-03
2.28681858e-03, 4.91498690e-03
2.28711893e-03, 4.91335616e-03
2.28741928e-03, 4.91172634e-03
2.28771963e-03, 4.91009606e-03
2.28801998e-03, 4.90846671e-03
2.28832033e-03, 4.90683829e-03
2.28862069e-03, 4.90520895e-03
2.28892104e-03, 4.90358099e-03
2.28922139e-03, 4.90195258e-03
2.28952174e-03, 4.90032462e-03
2.28982209e-03, 4.89869760e-03
2.29012244e-03, 4.89707058e-03
2.29042280e-03, 4.89544403e-03
2.29072315e-03, 4.89381747e-03
2.29102350e-03, 4.89219138e-03
2.29132385e-03, 4.89056623e-03
2.29162420e-03, 4.88894107e-03
2.29192455e-03, 4.88731638e-03
2.29222490e-03, 4.88569168e-03
